1428501761.000000
64.000000
-0.000000
-0.000000
-0.000000
-0.000000
-0.000000
-0.000000
-0.000000
-0.000000
-0.000000
-0.002232
0.004517
0.011266
0.011384
-0.001186
-0.025910
-0.050634
-0.051363
0.001493
0.130243
0.355628
0.659125
1.009510
1.370983
1.719736
2.055110
2.399450
2.786664
3.239907
3.796012
4.418684
5.059294
5.664410
6.202154
6.680880
7.149598
7.678234
8.310739
9.143657
10.089731
11.041313
11.884212
12.564316
13.135630
13.760044
14.652320
15.962056
17.914442
20.317299
22.903854
25.379471
27.578028
29.572460
31.675173
34.317799
37.813618
42.541233
48.146301
54.104755
59.833092
64.972374
69.582932
74.143532
79.344986
85.707260
93.761932
102.997787
112.617569
121.730339
129.766022
136.751022
143.303436
150.746231
157.773560
166.643234
177.947983
191.791016
206.968079
220.565918
228.246445
225.361542
208.531982
176.870239
132.762222
80.049973
23.069275
-34.943390
-92.436951
-149.156952
-205.227722
-260.369629
-313.741333
-363.873962
-409.833527
-450.907745
-486.502441
-515.738647
-537.227417
-549.219971
-549.961304
-538.367004
-514.205505
-478.674011
-433.879517
-382.451263
-327.021057
-269.841858
-212.633789
-156.659393
-102.952332
-52.373596
-5.904694
35.580414
71.425842
101.351837
125.501129
144.379700
158.694031
169.150711
176.371094
180.751389
182.574188
182.068634
179.506607
175.233246
169.652863
163.176910
156.145676
148.806808
141.296860
133.689835
126.019623
118.332680
110.688637
103.155724
95.804550
88.684166
81.827438
75.245941
68.952599
62.949085
57.247494
51.857185
46.782822
42.027760
37.585209
33.451748
29.613855
26.070963
22.808779
19.824995
17.113392
14.666497
12.479320
10.538469
8.833674
7.347844
6.067610
4.973181
4.045764
3.266557
2.619956
2.086933
1.649396
1.297100
1.016026
0.795998
0.624181
0.494898
0.400581
0.333053
0.292976
0.270355
0.263500
0.268725
0.285618
0.312464
0.342432
0.377281
0.414248
0.453196
0.494480
0.534405
0.576995
0.616178
0.661747
0.704856
0.752821
0.802773
0.861551
0.923647
0.994366
1.075100
1.169483
1.278200
1.404162
1.546922
1.709558
1.892403
2.096694
2.324304
2.574973
2.852088
3.157178
3.489147
3.850905
4.237041
4.659112
5.107215
5.586204
6.093486
6.638625
7.212558
7.820663
8.461693
9.135039
9.839187
10.571116
11.336965
12.146772
13.001774
13.908438
14.851432
15.833452
16.820309
17.776684
18.630247
19.303707
19.678333
19.649378
19.095396
17.919189
16.048700
13.455534
10.171833
6.266706
1.844009
-2.890358
-7.724041
-12.420437
-16.744038
-20.459572
-23.397057
-25.443817
-26.540340
-26.668186
-25.854179
-24.156269
-21.666130
-18.481678
-14.763359
-10.681141
-6.450317
-2.293308
1.596684
5.097397
8.074730
10.499165
12.371365
13.748104
14.678261
15.165661
15.246613
14.992661
14.537094
13.965691
13.446152
13.204208
13.318878
13.808929
14.512962
15.210960
15.716362
16.053154
16.152168
16.241386
16.617851
17.543228
18.966713
20.622795
22.056229
22.933029
23.229919
22.873024
22.253288
21.984169
22.418663
23.563889
24.873894
25.592133
25.024544
22.986389
19.332062
14.487946
9.182747
3.863403
-1.609589
-8.170364
-17.546890
-32.395081
-51.548843
-75.471848
-103.980804
-135.358490
-165.991760
-190.803391
-204.577988
-203.701538
-187.564194
-158.759552
-122.809998
-85.588776
-51.757751
-24.056824
-3.441719
10.153389
17.172371
18.200005
14.146507
5.956390
-4.820206
-16.385483
-27.236221
-36.504387
-44.126137
-50.852798
-57.815453
-66.106995
-76.576035
-89.049492
-102.198051
-113.784737
-121.100128
-121.589508
-113.396614
-95.658493
-68.645630
-33.836952
6.334688
48.720451
89.761337
126.004868
154.692490
174.191360
184.314941
186.150330
181.602814
172.876587
162.029480
150.659149
139.889847
130.452362
122.765709
116.947174
112.771881
109.766365
107.359604
105.082947
102.749420
100.403458
98.147827
95.863358
93.145439
89.344543
83.957970
76.819344
68.375389
59.535355
51.430618
45.173920
41.680405
41.530750
44.851227
51.288521
60.018539
69.911781
79.750641
88.475922
95.249817
99.397957
100.335739
97.600418
91.004883
80.855377
68.005089
53.734047
39.309875
25.649345
13.137527
1.786621
-8.511566
-17.827713
-26.165283
-33.640381
-40.560226
-47.440277
-54.706360
-62.611069
-71.075790
-79.784760
-88.421082
-96.800415
-104.941437
-112.950836
-120.938507
-128.902740
-136.663696
-143.806824
-149.523315
-152.658295
-151.843018
-145.904297
-134.397400
-117.936310
-98.263000
-77.772552
-58.892609
-43.383636
-32.033020
-24.692841
-20.684662
-19.174774
-19.468201
-21.029968
-23.427643
-26.226227
-28.987701
-31.317780
-32.960052
-33.802673
-33.915466
-33.403137
-32.450195
-31.158783
-29.649506
-27.985687
-26.292053
-24.723663
-23.561432
-23.199768
-24.070892
-26.515564
-30.688721
-36.421478
-43.283325
-50.628662
-57.703003
-63.651306
-67.586853
-68.635590
-66.085724
-59.590820
-49.356049
-36.152496
-21.181610
-5.821472
8.661957
21.244751
31.201965
38.135986
41.967590
42.976349
41.723633
39.031738
35.723389
32.540924
29.983154
28.287506
27.360016
26.871521
26.357208
25.344208
23.563690
21.075806
18.258301
15.590149
13.391724
11.613937
9.734085
7.006226
2.710724
-3.510910
-11.549713
-20.782669
-30.228653
-38.653503
-44.841339
-47.811615
-46.984268
-42.325485
-34.297165
-23.724350
-11.646240
0.891968
12.840164
23.209534
31.051163
35.628906
36.543045
33.954819
28.623383
21.773636
14.818390
8.963226
5.014664
3.151825
3.038559
3.984329
5.179230
5.975357
5.984146
5.144760
3.572372
1.433479
-1.245377
-4.572311
-8.865082
-14.434586
-21.415070
-29.607635
-38.320038
-46.439873
-52.571358
-55.398827
-54.041397
-48.301193
-38.741379
-26.432945
-12.694824
1.310375
14.642300
26.641796
36.711327
44.286263
48.893566
50.241825
48.436855
44.021038
37.907276
31.236916
25.057302
20.165611
16.889111
15.072030
14.169694
13.535668
12.622913
11.227591
9.365702
7.137922
4.510674
1.205318
-3.150299
-8.875481
-16.091427
-24.647099
-34.214432
-44.262379
-54.123749
-62.879238
-69.414810
-72.541199
-71.347816
-65.455849
-55.230026
-41.764885
-26.587273
-11.275230
2.867508
14.945084
24.474670
31.243279
35.162865
36.270538
34.763824
31.197174
26.472397
21.802826
18.399460
17.180817
18.459976
21.974167
27.001648
32.636520
38.045807
42.608215
45.894516
47.675003
47.807220
46.282211
43.170731
38.652496
32.941940
26.199722
18.442917
9.593826
-0.374908
-11.268753
-22.498077
-33.043457
-41.579422
-46.741470
-47.404144
-42.965210
-33.574387
-20.124878
-4.169724
12.395172
27.685730
40.218048
49.102081
54.110260
55.501007
53.828949
49.793060
44.198975
37.926270
31.984131
27.290405
24.491547
23.754791
24.755035
26.885010
29.691742
33.052734
37.348633
43.103455
50.740112
60.200043
71.035431
82.434967
93.464691
103.207001
110.769775
115.342224
116.360138
113.662949
107.586212
98.901443
88.590195
77.476456
66.210831
55.245514
45.133850
36.632477
30.671066
28.072495
29.294724
34.187256
42.025299
51.675064
61.771698
70.961975
78.129654
82.421661
83.439880
81.158722
75.993576
68.540916
59.608299
50.051086
40.807243
32.773926
26.668560
22.885864
21.378304
21.703165
23.167570
25.023523
26.547718
26.982410
25.539917
21.357906
13.877571
3.095020
-10.148773
-24.386795
-38.032547
-50.031479
-60.313141
-69.724876
-79.561981
-90.884094
-103.991211
-118.272446
-132.297943
-144.180511
-151.974304
-154.104965
-149.705307
-138.882812
-122.710922
-103.038422
-81.939026
-61.321869
-42.738892
-27.351608
-16.116577
-9.724304
-8.393555
-11.580109
-17.938232
-25.700073
-33.160583
-39.360840
-44.086639
-47.676361
-50.412445
-52.153107
-52.336090
-50.375885
-46.111664
-40.149139
-33.622803
-27.875305
-23.897369
-22.047333
-22.117218
-23.516876
-25.590515
-27.802246
-29.833069
-31.568756
-33.075012
-34.629730
-36.725250
-39.848663
-44.312012
-49.851898
-55.564270
-59.919128
-61.163757
-57.850739
-49.295441
-35.788025
-18.496552
0.788330
20.107391
37.568848
51.603119
61.098907
65.408478
64.520905
59.023132
50.079071
39.268860
28.315643
18.734283
11.592957
7.305176
5.688843
6.064636
7.553345
9.340576
10.864929
11.876556
12.352295
12.284180
11.572784
9.991791
7.330994
3.512573
-1.287384
-6.696716
-12.220428
-17.462952
-22.286591
-26.794067
-31.345978
-36.358704
-42.186737
-48.917267
-56.198853
-63.221436
-68.755157
-71.480072
-70.290405
-64.696014
-54.908966
-41.852936
-26.822021
-11.230621
3.695831
16.993591
27.942688
36.052917
41.032776
42.821411
41.706543
38.324677
33.608307
28.532257
23.914246
20.219757
17.531403
15.664429
14.378052
13.483887
12.900208
12.538574
12.137299
11.241699
9.303711
5.854767
0.772888
-5.698090
-12.989044
-20.409210
-27.328003
-33.357971
-38.345764
-42.482788
-46.157196
-49.926178
-54.302124
-59.510651
-65.297913
-70.823547
-74.786926
-75.782135
-72.741089
-65.335342
-54.034927
-40.004990
-24.628799
-9.076157
5.927704
20.079773
33.263947
45.242203
55.518173
63.529495
68.945023
71.895828
73.049301
73.337936
73.588745
74.233124
75.233719
76.179794
76.665512
76.304642
74.902206
72.342865
68.654282
64.044662
59.045731
54.504578
51.207779
49.365402
48.120575
45.526947
39.108917
26.827484
8.069473
-16.052460
-43.139816
-70.547272
-96.329987
-119.739288
-140.779083
-159.407730
-174.875198
-185.707031
-190.470154
-188.699677
-181.568100
-171.655426
-162.079010
-155.334595
-152.428497
-152.741028
-154.398743
-155.031509
-152.320160
-144.285812
-129.337097
-106.377907
-74.939323
-35.578362
9.913193
58.607014
106.829315
150.947327
188.134598
216.932968
237.208832
249.430374
253.997086
250.619705
238.575699
217.356903
187.252441
149.284302
104.400726
52.904728
-5.394508
-69.773041
-137.143021
-201.446014
-255.039886
-291.529297
-308.600708
-309.131989
-299.756836
-287.849609
-278.496765
-273.269135
-271.024933
-269.931885
-269.023590
-268.519745
-268.945801
-269.987183
-270.037354
-266.690338
-257.958527
-243.198853
-223.403900
-200.779938
-177.527283
-154.846863
-132.378326
-108.477051
-81.074707
-48.798889
-11.689148
28.822449
70.501282
111.331421
150.362244
187.981995
225.706360
265.761719
310.474792
361.446716
418.740173
479.914307
539.832581
591.359741
627.232178
642.473999
636.213623
612.107361
576.978882
538.369934
502.112915
471.115051
445.611511
424.357666
405.945435
389.447815
374.326904
359.949158
345.315918
329.173950
310.602112
289.421753
266.382996
243.047241
221.088501
201.792236
185.621460
172.206726
160.648499
149.934509
139.371887
128.654846
117.863098
107.199890
96.846924
86.884552
77.301422
68.010284
58.785553
49.280579
38.980499
27.321686
13.781738
-2.009247
-20.234436
-40.861923
-63.678558
-88.213051
-113.635757
-138.665665
-161.678146
-181.014877
-195.400528
-204.412659
-208.552460
-209.105240
-207.871811
-206.725403
-207.431473
-211.633072
-220.938477
-236.746704
-259.640656
-288.594879
-320.493164
-350.496246
-373.323059
-385.105896
-384.749664
-374.218170
-357.560669
-339.138214
-322.110443
-307.721954
-295.769653
-285.503235
-276.524536
-268.985718
-263.273163
-259.503601
-257.211243
-255.478333
-253.361877
-250.305878
-246.246460
-241.602997
-236.766388
-231.720398
-225.747162
-217.490723
-205.426880
-188.454315
-166.477386
-140.594330
-112.814911
-85.480621
-60.572205
-39.333344
-22.146210
-8.771027
1.381531
9.210632
15.801666
22.559387
30.909668
42.073395
56.516083
73.820862
92.706207
111.379364
127.918259
140.679764
148.543854
151.167358
148.945816
142.793182
133.688049
122.206970
108.245834
91.208969
70.515961
46.268219
19.540276
-7.657665
-32.950409
-54.137619
-69.468864
-77.584595
-77.377892
-68.055115
-49.502392
-22.706821
10.009007
45.528358
80.673744
113.148796
141.804565
166.524719
187.389038
204.121429
215.911057
222.051605
222.726913
219.456970
214.812225
211.342346
210.375153
211.494583
212.946854
212.864609
210.215881
205.186005
198.563751
191.026138
182.648682
173.207382
162.682907
151.615829
140.780716
130.516006
120.024025
107.552910
91.210899
70.133118
45.074409
18.305664
-7.297020
-29.193886
-45.780052
-56.446503
-61.460838
-61.798580
-59.273823
-56.288696
-55.340843
-58.262245
-65.386284
-75.452011
-86.190300
-95.363831
-101.860580
-106.169518
-110.255951
-116.757736
-127.919037
-144.524918
-165.164642
-186.004974
-201.380844
-205.218445
-192.962570
-163.268768
-118.707520
-65.038345
-9.322845
42.149803
85.105698
117.458763
138.727707
149.443970
151.000549
145.762695
136.802322
127.304123
119.435043
113.753296
109.343170
104.745682
99.016891
92.269348
85.296234
78.720490
72.425369
65.534622
56.952759
46.056625
32.998734
18.547104
3.518997
-11.749695
-27.732544
-45.655106
-67.092209
-93.263611
-124.214172
-158.319168
-192.361618
-222.328217
-244.670975
-257.273041
-259.764923
-253.156815
-239.195923
-219.988403
-198.171829
-177.062531
-160.425385
-151.426529
-151.237701
-158.132599
-167.729919
-174.587555
-174.309830
-165.287811
-148.951370
-128.741577
-108.568985
-91.519363
-79.546036
-73.526764
-73.531540
-78.564301
-86.228226
-92.762222
-94.052040
-87.295525
-72.337517
-51.901176
-30.218094
-10.847736
4.879227
18.036736
30.759022
44.512283
58.867855
71.974113
81.692505
87.000061
88.336327
86.952271
83.772842
78.650558
70.692047
59.171005
44.542526
28.566971
13.473526
0.654739
-10.193909
-20.898254
-33.698807
-49.578201
-67.365997
-83.789001
-94.814270
-97.251373
-89.964111
-74.018829
-51.846954
-26.118530
1.062103
28.256500
54.196594
77.435455
96.315063
109.537872
116.547150
117.986084
115.302704
110.228577
104.155487
97.841980
91.504944
85.164551
78.948242
73.265869
68.697266
65.895935
65.498840
67.944397
73.356323
81.458191
91.519165
102.547607
113.236450
122.239014
128.325256
130.867371
130.448730
129.324768
131.296204
140.586853
160.087585
189.922546
227.060669
266.287476
302.754456
333.917358
359.718262
381.154175
398.494446
410.565979
415.333496
411.388855
398.795593
379.768738
357.733276
335.774139
315.210205
295.239594
273.912720
249.653259
222.391663
192.926270
163.395630
136.652802
114.916534
98.609573
86.566437
77.429733
71.079971
68.755180
69.211494
70.555489
70.687622
67.588913
59.166912
44.203732
23.630959
0.594933
-20.949036
-43.647003
-70.471542
-101.339294
-132.722198
-160.823639
-183.663727
-200.975922
-213.417267
-222.192841
-237.559204
-267.005920
-310.139954
-359.454041
-406.994934
-448.587677
-483.540771
-512.846008
-537.972656
-572.008240
-624.546143
-695.334656
-775.500916
-856.063171
-933.040100
-1006.749207
-1079.182129
-1078.983398
-968.102295
-765.699036
-533.583008
-324.319336
-157.498199
-30.240906
67.236755
143.730682
204.929962
242.874054
252.525177
238.951660
216.157562
197.587799
190.131378
194.173676
206.740723
223.990662
234.341553
230.651215
214.597290
194.813568
179.193176
170.739441
167.605469
167.703110
169.294479
166.275696
155.269699
137.767029
118.954575
103.176239
92.088921
84.793358
79.580917
74.804855
66.832321
53.775036
36.801857
19.408733
4.755909
-5.439987
-11.466049
-14.435890
-15.360794
-15.353905
-14.225922
-10.380600
-1.375534
11.388489
26.912140
43.937714
61.642944
79.949860
99.542862
121.527344
146.964279
176.391953
209.373047
244.551895
278.835815
307.815247
326.878479
332.793213
324.949066
305.646454
279.111633
249.791153
221.177948
194.701035
170.382202
148.018417
128.289780
112.965103
104.102203
102.848587
108.501892
118.676392
129.560547
137.136703
138.133850
130.712982
114.652176
90.973343
61.593056
28.706696
-5.428478
-38.765575
-69.381195
-95.403038
-115.130829
-127.298134
-131.413391
-127.938614
-118.158226
-103.815704
-86.684311
-68.193169
-49.204720
-30.006798
-10.456604
9.636810
30.272766
50.981522
70.684937
87.948120
101.347382
109.995331
113.831680
113.544342
109.964630
103.511688
93.775970
79.729950
60.433655
35.608643
6.072968
-26.585327
-60.718750
-95.463470
-131.006409
-168.048035
-207.007599
-247.094391
-286.209625
-321.488098
-350.049347
-369.599854
-378.504913
-375.710052
-360.731537
-334.221558
-298.585632
-258.192230
-218.610168
-184.993317
-160.333221
-144.561371
-135.004974
-127.812592
-119.685852
-108.848022
-95.038177
-78.878448
-61.199310
-42.751068
-24.212433
-6.461639
9.436920
22.381256
31.615356
36.966034
38.890350
38.371613
36.617859
34.873566
34.252350
35.500946
38.914368
44.189606
50.525269
56.777435
61.822449
64.870392
65.620605
64.298065
61.486053
57.784363
53.596680
49.030365
43.941986
38.141571
31.490814
24.011444
15.796539
6.969330
-2.309540
-11.715363
-20.566559
-27.687378
-31.515350
-30.534332
-23.826294
-11.562653
4.868530
23.211060
40.970581
56.165375
67.686493
75.384094
79.712158
81.299149
80.611862
77.896957
73.307510
67.113037
59.827179
52.140060
44.772659
38.318451
33.074265
29.041138
25.987946
23.478821
21.001617
18.058167
14.253876
9.403473
3.614243
-2.734970
-9.151230
-15.221710
-20.827194
-26.249100
-32.056351
-38.909302
-47.201614
-56.809158
-66.953125
-76.259781
-83.015671
-85.565887
-82.753586
-74.304092
-60.996719
-44.561661
-27.213730
-11.090302
2.279816
12.300293
19.086319
23.156525
24.943298
24.527878
21.705856
16.266891
8.409088
-1.038086
-10.687424
-19.092178
-25.285416
-29.255264
-32.099022
-35.583122
-41.416939
-50.548500
-62.658188
-76.387077
-90.002991
-102.240242
-112.941177
-123.142807
-134.680847
-149.504333
-169.114838
-194.256073
-224.539612
-258.161133
-291.629456
-319.961884
-337.660370
-340.667542
-328.419678
-305.017029
-278.101624
-255.971512
-243.958862
-242.110931
-245.515717
-247.085724
-241.205750
-226.180969
-204.279633
-179.657562
-155.662476
-133.341553
-111.632507
-89.072632
-65.309937
-41.740234
-20.658997
-3.823853
8.783142
18.978760
29.529785
42.856689
59.924744
79.940491
101.002014
121.272583
139.948120
157.383484
174.412292
191.247131
206.929382
219.519409
227.057373
228.565674
224.501465
216.315552
205.713867
194.080933
182.541626
172.501587
166.038696
165.597656
172.994507
188.395996
209.841675
233.803833
256.510864
275.210693
288.802612
297.515137
302.164673
303.303833
300.892334
294.531372
284.025879
269.900635
253.527344
236.760376
221.443848
208.766968
199.005859
191.436646
184.684692
177.218140
167.998169
156.882568
144.729980
133.082520
123.508545
116.898071
113.101196
110.996582
109.091064
106.274292
102.276001
97.698120
93.691650
91.561279
92.617065
98.198242
109.475342
126.870605
149.223022
173.076660
192.975952
202.751709
197.637207
176.146240
140.983398
98.191650
55.230103
18.591675
-7.893677
-23.570801
-30.186279
-30.670410
-27.907349
-24.060547
-20.538574
-18.218506
-17.721680
-19.556885
-23.897095
-30.420654
-38.242798
-46.136597
-52.914917
-57.950684
-61.389221
-64.046814
-67.056030
-71.346375
-77.297546
-84.680237
-92.893799
-101.338745
-109.687561
-117.973450
-126.297852
-134.581055
-142.235718
-148.172974
-151.023315
-149.555237
-142.989014
-131.265808
-114.998535
-95.341919
-73.745605
-51.694153
-30.465393
-11.036011
6.062317
20.689697
33.125183
44.057129
54.646240
66.289368
80.098083
96.047791
112.281006
125.022400
129.570801
121.877319
100.317047
66.475616
24.713593
-19.385651
-60.792725
-96.235687
-124.303589
-144.826416
-158.069916
-164.498993
-164.966187
-161.117920
-155.339600
-150.184113
-147.432739
-147.355988
-148.530029
-148.381409
-144.147919
-133.927368
-117.331696
-95.662262
-71.514313
-48.065796
-28.110657
-13.343414
-4.013214
0.834686
2.741150
3.007202
2.202423
0.162933
-3.544037
-9.007904
-15.613983
-22.124878
-27.268219
-30.377594
-31.736084
-32.339874
-33.184204
-34.632660
-36.108459
-36.456390
-34.691956
-30.661743
-25.265289
-20.153717
-17.071625
-17.315002
-21.375092
-28.939606
-38.919922
-49.497620
-58.343170
-62.977875
-61.421082
-52.805328
-37.694702
-17.913910
4.194672
26.489807
47.514343
66.536621
83.266022
97.518677
109.110077
117.976379
124.448044
129.371735
133.974167
139.416977
146.321213
154.455246
162.788055
169.977951
174.877945
177.000473
176.622696
174.486420
171.475342
168.317825
165.664169
164.213257
164.731552
167.734894
172.820938
178.261200
181.041901
177.654633
165.461792
143.746414
114.172287
80.155502
45.605732
13.629781
-14.109474
-37.300766
-56.191330
-70.821121
-80.635292
-84.855339
-83.067184
-75.830788
-64.774826
-52.235031
-40.614548
-31.765533
-26.595306
-25.118011
-26.656967
-30.236481
-34.821106
-39.513855
-43.504089
-46.035889
-46.416687
-44.154877
-39.260956
-32.431641
-25.044830
-18.869293
-15.620819
-16.517303
-22.067291
-32.116516
-46.165192
-63.612427
-83.762817
-105.677368
-127.895081
-148.460083
-165.085022
-175.738708
-179.148560
-175.144043
-164.709229
-149.547119
-131.610229
-112.689636
-94.230591
-77.360168
-63.037109
-52.074585
-45.052673
-42.081909
-42.751465
-46.084045
-50.736694
-55.231506
-58.242065
-58.783569
-56.432068
-51.393127
-44.575500
-37.304749
-31.038574
-26.879944
-25.321655
-26.220520
-29.021912
-33.140991
-38.188721
-44.124084
-51.154114
-59.642883
-69.910645
-82.023438
-95.569885
-109.506897
-122.076721
-131.061829
-134.263367
-130.069275
-118.041321
-98.983582
-74.769043
-47.791809
-20.392273
5.472839
28.370361
47.288269
61.535522
70.806885
75.341125
76.063110
74.426636
72.089783
70.317627
69.598999
69.546326
69.150452
67.356506
63.561951
57.905212
51.207275
44.696167
39.499512
36.304138
35.092590
35.263916
35.806641
35.749817
34.425659
31.664673
27.751648
23.468811
20.020935
18.999939
21.884644
29.302551
40.251465
51.898132
60.291748
61.881653
55.096863
41.145203
23.461121
6.157837
-7.729492
-17.121887
-22.765320
-26.075134
-28.158569
-29.307800
-29.406250
-28.513855
-27.350159
-27.010864
-28.478027
-32.035461
-37.062134
-42.355957
-46.679382
-49.352539
-50.536438
-51.060364
-52.093140
-54.534973
-58.737549
-64.427185
-70.956177
-77.716614
-84.437866
-91.165649
-97.917969
-104.261658
-109.102112
-110.759277
-107.537537
-98.330078
-83.213745
-63.486633
-41.454712
-20.009094
-2.181458
9.406677
13.059937
8.791504
-1.273804
-12.901672
-20.789734
-20.298706
-9.138855
11.609192
37.846008
64.122375
85.589661
99.608154
106.039612
106.554810
103.310120
97.991455
91.501831
84.294373
76.793213
69.594177
63.114380
57.162109
50.636169
41.842041
29.219482
12.354492
-7.558167
-27.702148
-44.496948
-54.802551
-57.025024
-51.492981
-40.221313
-26.028015
-11.561340
1.381653
12.031250
20.335693
26.488831
30.579834
32.459961
31.916992
28.935120
23.947327
17.754272
11.353882
5.577637
0.884277
-2.728333
-5.534790
-7.930542
-10.232056
-12.569458
-14.943298
-17.327087
-19.796204
-22.602844
-26.160278
-30.960510
-37.369202
-45.431152
-54.676758
-64.180054
-72.672180
-78.962830
-82.213318
-82.236755
-79.347656
-74.218628
-67.615540
-60.143311
-52.178467
-43.880249
-35.254883
-26.400269
-17.544800
-9.182800
-2.042175
3.069336
5.520142
5.001709
1.614319
-4.165100
-11.551910
-19.579132
-27.264374
-33.712891
-38.370697
-41.231018
-42.842316
-44.158966
-46.153625
-49.497131
-54.329346
-60.336365
-66.953400
-73.756683
-80.573761
-87.638977
-95.439484
-104.541809
-115.309509
-127.654633
-140.768402
-153.005493
-162.138916
-165.727417
-161.826752
-149.484039
-129.049286
-102.092484
-71.039139
-38.613464
-7.348343
20.776672
44.439758
63.012436
76.403870
85.066101
90.003883
92.750496
95.266586
99.561592
107.266922
119.112366
134.601990
151.945435
168.321487
180.556198
185.910797
182.960495
172.026245
155.051453
134.861710
114.002159
93.854408
74.333572
54.432602
33.267365
10.989929
-10.895378
-30.037231
-44.105423
-51.558624
-51.826706
-45.022873
-31.585281
-12.219818
11.861282
38.564575
65.043884
88.395477
106.518585
118.917892
126.650314
131.660110
135.660568
139.241226
141.617126
141.042892
135.593155
123.872055
105.489975
81.204895
52.788025
22.820618
-5.560211
-29.037231
-44.780396
-51.103760
-48.140076
-37.998871
-24.513519
-12.398956
-6.083710
-8.560974
-20.698242
-41.271759
-67.747559
-97.329224
-127.796387
-157.660706
-185.684326
-210.151520
-228.490387
-237.383789
-233.679810
-215.404510
-182.664093
-138.101746
-86.672241
-34.892853
10.430145
43.557587
61.144226
62.947571
51.774139
32.546387
10.821106
-8.490234
-21.917633
-27.435944
-24.172211
-11.997437
8.542786
36.059296
68.225433
101.892670
133.559143
159.953735
178.386719
187.050476
185.032166
172.547180
151.204224
124.074524
95.200806
68.522766
46.582336
29.694946
15.996521
2.513916
-13.394043
-32.902710
-55.260864
-78.148499
-98.343689
-112.395752
-117.209717
-110.451172
-91.123901
-59.980530
-19.903320
24.420654
67.214050
102.788696
126.710205
136.647156
132.820129
117.908630
96.364136
73.287231
53.009827
37.965515
28.134583
21.517456
15.253479
7.110962
-3.250000
-14.195618
-22.777161
-25.861084
-21.318481
-8.881958
9.682678
30.954285
50.648804
64.758667
70.107300
64.860352
48.887451
23.962585
-6.543396
-38.466919
-67.989441
-92.679993
-111.491821
-124.960571
-134.154114
-139.489746
-140.054016
-133.872498
-119.157349
-95.650940
-65.275879
-30.478760
5.396606
38.827393
66.806641
87.435669
100.103943
105.284363
104.205322
98.625427
93.043152
91.181091
94.582886
102.405579
112.671326
123.604431
134.232849
144.169922
153.221680
165.132446
182.488342
205.057983
229.879517
253.158020
272.107117
285.794495
294.308716
298.025513
301.954102
309.066528
318.364136
325.816040
327.748657
323.438965
315.856384
308.925232
274.218262
197.483337
83.630432
-45.635254
-167.442566
-269.088440
-347.832397
-404.487610
-441.185608
-459.400269
-458.474335
-439.192444
-406.173889
-367.358521
-330.394470
-299.460327
-272.288635
-242.741486
-206.148987
-155.672699
-88.518494
-6.786285
83.738312
176.288879
252.598083
296.232086
296.588745
254.553925
185.452911
110.189636
47.449615
7.895737
-8.064407
-9.209732
-7.365479
-12.936661
-30.297043
-55.017380
-78.094345
-90.545273
-88.162529
-73.075935
-52.073959
-31.242401
-14.141960
-1.230255
10.704590
21.635490
29.622215
31.572384
25.204029
10.413147
-8.952541
-27.210300
-39.332008
-43.100815
-40.241299
-34.648735
-30.559483
-30.747124
-35.752716
-43.218105
-49.542500
-51.638470
-48.272289
-40.762554
-31.895374
-25.057034
-20.977524
-20.403374
-22.775192
-26.953262
-31.701218
-36.071030
-39.471603
-41.159134
-40.191116
-35.709808
-27.549561
-15.972641
-1.743805
14.196899
31.053497
48.102676
64.713211
80.050644
92.924820
101.763321
105.456299
103.753616
97.515076
88.512894
78.824829
70.139984
63.166779
57.475388
51.653442
44.158081
33.873016
20.419250
4.233765
-13.652008
-31.595520
-47.598969
-59.800354
-67.228943
-70.435333
-71.774292
-74.682495
-82.439575
-96.937286
-118.070648
-143.952637
-171.740906
-198.443390
-221.259705
-237.706726
-245.628479
-243.458954
-230.812439
-208.577789
-178.969666
-144.834503
-109.105255
-74.376282
-42.943939
-16.781372
2.675598
14.976685
20.896423
22.136719
20.546875
17.617096
14.109863
10.401306
6.851898
4.019775
2.387238
2.026215
2.280914
2.027130
0.183868
-3.786285
-9.767670
-17.088074
-24.937286
-32.699066
-40.153748
-47.393799
-54.660400
-62.027344
-69.189545
-75.063080
-77.849335
-75.361755
-65.799683
-48.371185
-23.852386
5.479431
36.316055
65.021698
88.320984
103.846130
110.440048
108.392487
99.545517
87.099609
74.956345
66.909637
65.568375
71.754028
84.254333
100.292847
116.293518
128.892929
135.659866
135.538040
128.829575
116.835220
101.182922
83.282852
64.054764
43.974777
23.435028
3.116028
-15.960892
-32.668564
-46.423279
-57.638733
-67.880295
-79.230927
-93.340668
-110.271973
-128.203262
-143.723129
-153.134003
-153.848907
-145.519394
-130.264679
-111.969955
-94.883942
-82.246468
-75.431870
-73.990425
-76.179558
-79.667900
-81.911362
-80.530319
-73.551613
-59.871216
-39.780106
-15.227722
10.461121
33.448151
50.527729
60.120281
62.633438
59.997021
54.782490
49.327980
45.213627
43.097939
42.810196
43.319736
43.098698
40.334251
33.629387
22.459492
7.598338
-8.832911
-23.653767
-33.206234
-34.138798
-24.229998
-3.037960
27.791985
64.629120
102.476196
136.149750
161.542908
176.671219
181.978363
179.815948
173.132935
164.296478
154.226776
142.609650
128.550522
111.558456
92.000710
71.037109
49.974087
29.704109
10.633614
-6.938496
-22.283604
-33.982319
-40.385033
-40.460190
-34.554832
-24.588360
-13.537655
-4.357914
0.860554
1.409172
-2.248188
-9.037212
-17.981476
-28.449348
-40.125362
-52.671577
-65.331985
-76.787460
-85.429367
-89.779663
-89.035446
-83.271011
-73.445992
-60.973602
-47.412022
-33.984715
-21.615664
-10.872015
-2.126951
4.379337
8.511847
10.322384
10.072049
8.309605
5.841136
3.684569
2.803514
3.913045
7.112170
11.873762
17.192125
21.947254
25.282721
26.838186
26.622444
24.837811
21.764469
17.674944
12.900919
7.969227
3.411416
-0.452302
-3.807191
-7.301042
-11.821863
-17.893070
-25.340263
-33.038280
-39.254898
-42.234062
-40.835278
-34.840233
-24.997574
-12.668218
0.565997
13.332684
24.628786
33.872623
40.684303
44.920002
46.538383
45.675831
42.706512
38.244808
33.064819
27.969994
23.666212
20.627689
19.052837
18.848057
19.673061
21.032923
22.417793
23.429300
23.852133
23.692444
23.026428
21.944550
20.364086
18.036884
14.584855
9.710589
3.248734
-4.726269
-13.917202
-23.741028
-33.344406
-41.661602
-47.495010
-49.784866
-47.908699
-41.874077
-32.468353
-21.063244
-9.416145
0.803703
8.315052
12.567638
13.684811
12.423752
9.818806
6.888084
4.385578
2.643780
1.682133
1.281960
1.184044
1.222210
1.314831
1.502888
1.869934
2.490353
3.308926
4.141529
4.634529
4.399570
3.074795
0.468975
-3.428425
-8.434464
-14.272186
-20.637604
-27.268921
-33.997871
-40.661865
-46.973412
-52.396393
-56.093987
-57.088356
-54.530960
-48.060112
-37.942719
-25.093758
-10.768936
3.659470
17.045494
28.543549
37.592407
43.895325
47.388771
48.267815
46.919991
43.854156
39.608582
34.736130
29.811691
25.402702
22.059128
20.090149
19.419617
19.600250
19.999374
20.009003
19.318909
17.887428
15.862061
13.411209
10.685570
7.785164
4.878914
2.079941
-0.599266
-3.382507
-6.722511
-11.125511
-16.874916
-23.853455
-31.364182
-38.209129
-42.910645
-44.120171
-40.984871
-33.481735
-22.439323
-9.306519
4.246834
16.776703
27.351273
35.481415
41.037498
44.083008
44.804428
43.537720
40.820328
37.249725
33.381027
29.556122
25.878754
22.332886
18.948883
15.806931
13.105637
11.046677
9.740128
9.186737
9.187881
9.407608
9.412201
8.756607
7.082306
4.254181
0.460648
-3.885834
-8.232269
-12.112305
-15.344620
-18.157516
-21.081161
-24.793884
-29.723877
-35.728073
-42.034317
-47.355286
-50.307159
-49.933228
-45.986542
-38.961075
-29.830032
-19.673462
-9.383316
0.359222
9.042511
16.180725
21.339569
24.172897
24.615540
22.960602
19.798416
15.921707
12.125168
9.048645
7.048737
6.141800
6.036453
6.297638
6.467346
6.255905
5.589966
4.523773
3.211945
1.725403
0.099762
-1.681244
-3.556335
-5.435791
-7.233185
-8.931702
-10.699280
-12.858337
-15.833710
-19.964935
-25.299011
-31.368805
-37.172607
-41.397095
-42.726349
-40.403717
-34.428772
-25.609680
-15.188904
-4.443756
5.671082
14.550598
21.844543
27.267853
30.574432
31.657837
30.721832
28.336975
25.290344
22.368073
20.141327
18.867554
18.540588
18.933167
19.777924
20.798889
21.804016
22.683716
23.436493
24.045959
24.443787
24.543671
24.232880
23.462311
22.278107
20.718414
18.794708
16.396118
13.375092
9.575897
4.951447
-0.398651
-6.218475
-12.158630
-17.734344
-22.316193
-25.273529
-26.177399
-24.930542
-21.938812
-17.967285
-13.842651
-10.244354
-7.536316
-5.916016
-5.568817
-6.762360
-9.705902
-14.349915
-20.256897
-26.502563
-31.965485
-35.623047
-36.901611
-35.799103
-32.871246
-29.050812
-25.336823
-22.546783
-21.123077
-21.083710
-22.131439
-23.806274
-25.707977
-27.475739
-28.873657
-29.672363
-29.747253
-29.119659
-28.107788
-27.251099
-27.164825
-28.332184
-30.875275
-34.443573
-38.268341
-41.347900
-42.736908
-41.749359
-38.128662
-32.033630
-23.967651
-14.567963
-4.508118
5.666473
15.464874
24.435913
32.149323
38.210907
42.392761
44.686798
45.407379
45.043488
44.155731
43.219208
42.435547
41.735474
40.708130
38.870300
35.814453
31.499817
26.239594
20.696381
15.525482
11.195618
7.793640
5.033142
2.473022
-0.327148
-3.698578
-7.820343
-12.805634
-18.681488
-25.360474
-32.524872
-39.622711
-45.852356
-50.421997
-52.684448
-52.288971
-49.239563
-43.901825
-36.932373
-29.212311
-21.731537
-15.417450
-10.911804
-8.419922
-7.553864
-7.490204
-7.195282
-5.756714
-2.588043
2.358673
8.670349
15.488251
21.782654
26.535461
29.042114
29.103821
27.182892
24.253906
21.496857
19.853882
19.665527
20.504822
21.432343
21.285248
19.249634
15.087921
9.104187
1.888763
-5.905426
-13.723236
-20.990723
-26.967743
-30.709595
-31.343109
-28.385284
-22.139954
-13.629425
-4.250122
4.781494
12.718201
19.349976
24.738159
29.020630
32.337006
35.009247
37.610779
40.912384
45.543121
51.668884
58.735992
65.477600
70.101562
70.632019
65.240723
52.734009
32.937836
6.961487
-22.849792
-53.428467
-81.729065
-105.439240
-123.387299
-135.566956
-142.780304
-146.209137
-147.128418
-146.551056
-145.096558
-142.869293
-139.495544
-134.225677
-126.337036
-115.375702
-101.383209
-84.912140
-66.824127
-48.143707
-29.902618
-13.064331
1.472137
12.930969
20.718170
24.573334
24.514984
20.912537
14.320831
5.369675
-5.356537
-17.331924
-30.045364
-42.809296
-54.724350
-64.711899
-71.746078
-75.171799
-74.961624
-71.824646
-67.019897
-62.027130
-58.147873
-56.169891
-56.306595
-58.159363
-60.938477
-63.586845
-64.942307
-63.958603
-59.892406
-52.394680
-41.646317
-28.252972
-13.144461
2.634142
18.018034
32.088634
44.093376
53.540276
60.220329
64.258820
66.069565
66.335663
65.758522
65.013443
64.584244
64.816711
65.871628
67.738220
70.248428
72.997910
75.485519
77.175980
77.666962
76.863968
74.980698
72.513153
69.969330
67.706299
65.700867
63.640808
61.036865
57.540466
53.166718
48.421265
44.140839
41.316925
40.770813
42.954529
47.824310
54.880035
63.266968
71.947937
79.874329
86.121948
89.992310
91.076172
89.178375
84.467255
77.424896
68.919159
60.063690
52.036469
45.712372
41.416870
38.853973
37.292786
35.933289
34.212219
31.943390
29.273010
26.515472
23.941589
21.751770
20.054230
18.805603
17.824249
16.737640
15.025513
12.183380
7.982361
2.625549
-3.079163
-7.842163
-10.168213
-8.763031
-2.903015
7.283112
20.814392
36.038422
51.075073
64.253174
74.520874
81.448975
85.209991
86.310608
85.317047
82.675934
78.632019
73.242523
66.487793
58.354645
48.977539
38.766724
28.406647
18.692474
10.338043
3.676208
-1.568817
-6.195801
-11.277283
-17.764465
-26.063477
-35.931061
-46.506409
-56.627533
-65.225616
-71.704376
-76.036835
-78.692017
-80.326111
-81.429260
-82.108856
-82.057587
-80.699249
-77.545044
-72.383621
-65.392166
-57.013779
-47.767151
-38.083755
-28.302567
-18.755768
-9.963104
-2.628647
2.501236
5.010452
5.094711
3.659973
2.186523
2.203201
4.724152
9.886139
16.869812
24.269623
30.607391
34.833664
36.606659
36.414459
35.285782
34.465836
34.992279
37.354614
41.355637
46.223907
50.784836
53.815475
54.233475
51.290466
44.738373
34.928772
22.839478
9.949081
-2.060333
-11.801109
-18.609001
-22.636856
-24.679749
-25.656990
-26.150558
-26.240723
-25.580559
-23.715637
-20.439507
-15.912506
-10.694908
-5.612083
-1.565208
0.732384
0.970551
-0.576454
-3.071648
-5.329411
-6.169300
-4.809624
-1.123951
4.396378
10.810566
16.989178
21.798054
24.254555
23.607201
19.529371
12.181791
2.254568
-9.158920
-20.848194
-31.820429
-41.554386
-50.062351
-57.699024
-64.849037
-71.558197
-77.336418
-81.287674
-82.444000
-80.194443
-74.635216
-66.566422
-57.278770
-48.101025
-40.061409
-33.690216
-29.148090
-26.356861
-25.133291
-25.213871
-26.179443
-27.494663
-28.561266
-28.939049
-28.468597
-27.351677
-26.006214
-24.868902
-24.265051
-24.283728
-24.901611
-25.983213
-27.379747
-28.855862
-30.056795
-30.483238
-29.617413
-27.130205
-23.076361
-17.951704
-12.611677
-8.040810
-5.082121
-4.213547
-5.376247
-7.955029
-10.928078
-13.091095
-13.490044
-11.747696
-8.255764
-3.998997
-0.046833
3.078175
5.776543
9.254326
14.943100
23.596672
34.843140
47.161201
58.510002
67.182091
72.475327
74.874519
75.672516
76.432365
78.376007
82.083466
87.286606
93.041260
97.881958
100.205078
98.757507
92.971420
83.281212
70.914398
57.513878
44.603172
33.101868
23.324471
15.068665
7.901001
1.386421
-4.814636
-10.874596
-16.747757
-22.104858
-26.282845
-28.480461
-28.025047
-24.695015
-18.935791
-11.766560
-4.486431
1.701057
5.975971
8.004978
7.853310
5.779530
2.155399
-2.657429
-8.229668
-14.053150
-19.535908
-24.088264
-27.296354
-29.042997
-29.548466
-29.311741
-28.881945
-28.724611
-29.082413
-29.986361
-31.345507
-33.034172
-34.959778
-37.118408
-39.488525
-42.040565
-44.688103
-47.290070
-49.729652
-51.886463
-53.600624
-54.689259
-54.788994
-53.448669
-50.181690
-44.669296
-36.920296
-27.430965
-17.075233
-6.967203
1.828190
8.524998
12.739614
14.442686
13.866282
11.415052
7.689301
3.496023
-0.223742
-2.542557
-2.804432
-0.905493
2.688927
7.072487
11.297714
14.658833
17.033806
18.849121
20.873173
23.943413
28.601757
34.887535
42.268616
49.690369
55.778816
59.098045
58.464005
53.179291
43.336918
29.787983
14.146111
-1.515953
-15.108223
-25.000340
-30.451344
-31.740498
-30.010269
-26.866207
-23.849602
-22.062225
-22.025230
-23.802277
-27.205902
-31.971001
-37.828171
-44.465347
-51.403908
-58.115738
-64.066536
-68.844322
-72.222610
-74.148956
-74.578964
-73.501770
-70.842735
-66.616882
-60.880081
-53.815903
-45.658798
-36.710426
-27.235840
-17.527496
-7.847504
1.536682
10.367538
18.385925
25.317520
30.904541
35.008148
37.670105
39.184891
40.064575
40.888138
42.136078
44.010315
46.406281
49.017700
51.402954
53.135742
53.755875
52.812408
49.864700
44.682053
37.373413
28.611923
19.522614
11.492599
5.676788
2.685501
2.449326
4.343491
7.515121
11.253098
15.164780
19.182739
23.376083
27.787918
32.247162
36.421661
39.740829
41.618103
41.481415
38.979156
34.027527
26.969208
18.589462
10.110809
3.078796
-0.874527
-0.399780
5.184830
15.535919
29.268875
44.227814
58.020386
68.587814
74.682770
75.881699
72.495804
65.220139
54.925995
42.491302
28.824356
14.788422
1.158066
-11.439087
-22.625458
-32.282364
-40.518494
-47.682266
-54.260773
-60.803574
-67.764496
-75.323242
-83.291824
-91.252304
-98.612335
-104.921402
-109.949219
-113.790619
-116.680954
-118.826431
-120.181549
-120.296631
-118.416351
-113.523041
-104.700378
-91.451828
-73.844635
-52.691940
-29.392929
-5.827408
16.100464
34.885056
49.963806
61.852570
71.894806
81.689880
92.359375
104.025589
115.889389
126.652512
135.198151
141.013992
144.259369
145.448654
145.025955
143.133728
139.654465
134.448715
127.636002
119.551041
110.725876
101.623367
92.535629
83.552475
74.523682
65.258606
55.592087
45.427917
34.757645
23.621109
12.159439
0.692078
-10.139359
-19.416336
-26.000320
-28.806290
-27.118591
-20.815826
-10.491028
2.535675
16.385254
28.857986
37.903168
41.949982
40.370407
33.500732
22.560043
9.177696
-5.070625
-18.933296
-31.548798
-42.305534
-50.660309
-56.272339
-59.128304
-59.749588
-59.118484
-58.305038
-57.993286
-58.216248
-58.430756
-57.977093
-56.497467
-54.221371
-51.842724
-50.176880
-49.752594
-50.702652
-52.744133
-55.377037
-57.991356
-59.888092
-60.251877
-58.206127
-52.977451
-44.195038
-32.055721
-17.459717
-1.745390
13.537516
27.009836
37.727722
45.313606
49.844219
51.768318
51.643967
49.990829
47.225620
43.695831
39.693188
35.491238
31.276085
27.134426
23.094322
19.199707
15.601807
12.543007
10.149162
8.343765
6.767784
4.944603
2.556992
-0.435593
-3.838524
-7.417702
-11.173019
-15.354904
-20.267822
-25.921013
-31.783699
-36.696617
-39.159592
-37.799652
-31.918640
-21.917679
-9.500168
2.756393
12.165268
16.924011
16.780701
13.069122
7.940948
3.318466
0.082855
-2.128891
-4.259720
-7.043610
-10.458847
-13.711746
-15.863205
-16.425125
-15.709351
-14.556870
-13.874588
-14.114853
-15.228088
-16.839752
-18.608414
-20.545578
-23.007294
-26.512360
-31.409531
-37.671051
-44.813202
-52.016693
-58.411774
-63.240433
-66.086319
-66.865341
-65.809967
-63.277740
-59.667953
-55.153091
-49.693176
-43.035339
-34.835098
-24.903625
-13.357849
-0.685089
12.352066
24.870926
36.069107
45.286942
52.060715
56.108093
57.292847
55.682892
51.592514
45.662704
38.889557
32.544022
27.897018
25.880844
26.765213
30.052628
34.599579
39.056839
42.291702
43.688400
43.156143
40.911926
37.177109
32.078186
25.625443
17.904984
9.227493
0.063080
-9.079178
-17.831070
-26.050964
-33.819351
-41.337723
-48.839890
-56.458450
-64.098450
-71.363647
-77.518250
-81.626114
-82.798813
-80.548874
-74.959167
-66.733871
-56.923172
-46.627991
-36.679535
-27.600037
-19.641846
-12.998611
-7.877670
-4.451538
-2.781540
-2.669662
-3.624405
-5.031036
-6.258865
-6.831665
-6.596176
-5.693924
-4.465683
-3.300903
-2.426941
-1.836014
-1.300995
-0.484680
0.957458
3.273590
6.627289
11.069214
16.559097
22.851349
29.382736
35.214539
39.109253
39.869019
36.802078
30.145447
21.250198
12.234619
5.451782
2.666061
4.600830
10.909241
20.572556
32.476944
45.832611
60.243210
75.440933
90.938400
105.813904
118.820908
128.730850
134.680359
136.453430
134.501205
129.820496
123.606247
117.023087
110.940170
105.916046
102.271942
100.305786
100.322388
102.599121
107.152466
113.653290
121.586273
130.631226
140.925476
152.921509
166.617065
180.673706
191.996918
196.319458
189.563904
169.534546
136.885620
94.910706
48.348480
1.941681
-40.611786
-76.848083
-105.202423
-124.748657
-135.330627
-137.944641
-134.862793
-128.901306
-122.437439
-116.465027
-110.660156
-104.313965
-97.566223
-91.871765
-89.460571
-92.028442
-99.679321
-110.798096
-122.941345
-134.116272
-143.575745
-151.590149
-158.623962
-164.477966
-168.168518
-168.461975
-164.869141
-158.049683
-149.634949
-141.400635
-134.626099
-129.453918
-125.189880
-120.740601
-115.230652
-108.401855
-100.687988
-92.901855
-85.871460
-80.106812
-75.772705
-72.716003
-70.538757
-68.493103
-65.491760
-60.170593
-51.344604
-38.543518
-22.445312
-4.611572
12.996094
28.862366
42.322693
53.504333
62.729675
70.021057
74.943970
76.942688
75.867371
72.286743
67.395447
62.694824
59.354248
58.000305
58.559265
60.517761
63.166931
66.036621
68.929932
72.015198
75.564148
79.740234
84.302551
88.666138
91.939941
93.264099
92.198486
88.944824
84.305664
79.449585
75.134583
71.263672
66.444641
58.313477
44.378113
23.354126
-3.938721
-34.360352
-63.339478
-86.476013
-100.972839
-106.388672
-104.323853
-97.436096
-88.319397
-78.902344
-70.319336
-63.152954
-57.771057
-54.321838
-52.822083
-53.024902
-54.607300
-57.385498
-61.559387
-67.534546
-75.725098
-86.115784
-98.049194
-110.221375
-120.983032
-128.797974
-132.614258
-132.089783
-127.587524
-120.024719
-110.695190
-100.913208
-91.937500
-84.608276
-79.224182
-75.343689
-71.958069
-67.596008
-60.822510
-50.691650
-37.084412
-20.828491
-3.413391
13.456055
28.256653
39.882507
47.605347
51.045532
50.065857
45.013977
36.791565
26.905090
17.040527
8.672913
2.554260
-1.374695
-3.871399
-5.980286
-8.727356
-12.818054
-18.567871
-25.720520
-33.633057
-41.226318
-47.447327
-51.577179
-53.687805
-54.457733
-55.042206
-56.483154
-59.171600
-62.717682
-66.061310
-67.884705
-67.170502
-63.505127
-57.166687
-48.881470
-39.463043
-29.306641
-18.458710
-6.746338
5.782928
18.638733
30.903229
41.699707
50.624329
57.974884
64.491684
70.896683
77.415665
83.719559
89.051468
92.806290
94.791153
95.288330
94.804779
93.830200
92.500290
90.776733
88.566147
85.890297
83.036461
80.377441
78.126335
76.215775
74.226402
71.614975
67.966171
63.336399
58.268059
53.735954
50.792244
50.206192
52.151634
56.130074
61.158562
66.126884
70.130714
72.733849
73.920868
73.940865
73.012833
71.237946
68.656662
65.522461
62.457752
60.443504
60.419155
62.877457
67.530029
73.390839
79.221375
84.120789
87.904282
91.118790
94.608604
98.965393
104.221718
109.961426
115.603065
120.637207
124.390762
125.732147
122.807098
113.412949
95.884308
69.999321
37.486504
1.623314
-33.759010
-65.360657
-90.954918
-109.171127
-118.927277
-118.976685
-108.371864
-87.477936
-58.964630
-27.909546
-0.915512
15.852310
18.720596
7.825684
-12.767822
-36.304871
-55.681839
-65.790634
-65.041931
-55.346619
-40.870316
-26.117737
-14.571579
-8.324142
-8.739105
-16.927902
-33.758881
-59.025375
-90.578033
-124.239578
-154.908020
-178.366043
-192.769485
-198.866669
-198.935760
-195.256180
-189.107544
-180.671890
-169.715225
-156.246384
-140.735596
-123.764984
-105.773224
-86.991837
-67.760468
-48.764557
-31.091385
-15.801529
-3.535950
5.763260
12.661179
17.944504
22.212326
25.780975
28.697159
31.081390
33.180634
35.487656
38.518845
42.652603
47.910721
53.981911
60.231979
66.010147
70.855896
74.644485
77.620171
80.174049
82.635025
85.089088
87.285561
88.820091
89.168564
87.838577
84.428917
78.741539
70.891548
61.453373
51.513222
42.536804
36.050652
33.194839
34.391788
39.220913
46.570503
55.102062
63.533585
70.967224
76.857391
80.872246
82.716003
82.069138
78.754463
72.943298
65.277412
56.880608
48.961575
42.493229
37.885563
34.974655
33.285568
32.429825
32.293526
32.974663
34.509766
36.640083
38.736038
40.160629
40.660645
40.640686
41.063850
43.009430
47.132523
53.342529
60.836273
68.472717
75.169296
80.320572
83.724945
85.592010
86.298645
86.287720
86.024292
85.837753
85.745270
85.205811
82.932983
77.219208
66.561401
50.511932
30.173157
8.191132
-12.095245
-27.782928
-37.389801
-41.112488
-40.560577
-37.770691
-34.469025
-31.580261
-29.256622
-27.116150
-24.597473
-21.222870
-16.932465
-12.391571
-9.223419
-9.904877
-17.274811
-33.569000
-59.737091
-94.961182
-136.945496
-182.525024
-228.325439
-271.181702
-308.328430
-337.360779
-356.421143
-364.579773
-362.195496
-351.046082
-334.091797
-314.793030
-296.338562
-280.992432
-269.914673
-263.040283
-259.417938
-257.362213
-254.671875
-248.861877
-237.588531
-219.081421
-192.748993
-159.327179
-120.958954
-80.691498
-41.836334
-7.291718
20.945892
42.053528
56.336487
65.022278
69.846130
72.600098
74.697449
76.953766
79.716888
83.093140
87.124252
91.846283
97.134293
102.681473
108.024994
112.812729
116.934525
120.509109
123.697617
126.313477
127.742004
127.103874
123.609840
117.017876
107.767853
96.889671
85.512207
74.618492
64.691208
55.768379
47.508320
39.393288
30.851093
21.537949
11.376854
0.604759
-10.275230
-20.544655
-29.358971
-35.865585
-39.366501
-39.472961
-36.296112
-30.417023
-22.804962
-14.502060
-6.453384
0.710922
6.627792
11.087860
13.971664
15.214523
14.913818
13.444916
11.470093
9.816498
9.232330
10.218262
12.884369
17.105164
22.570923
28.991699
36.152008
43.951202
52.386444
61.527618
71.418701
81.988098
92.939270
103.713684
113.491364
121.405670
126.685516
128.884888
127.953552
124.212250
118.226715
110.670258
102.115601
93.035034
83.797028
74.828979
66.648376
59.874756
55.082458
52.578857
52.291290
53.819183
56.556702
59.982788
63.765289
67.762512
71.876556
75.874664
79.321869
81.651306
82.290741
80.852386
77.195221
71.438202
63.790070
54.577850
44.254547
33.567413
23.623230
15.838074
11.568604
11.629822
15.868011
23.023926
31.056427
37.727142
41.236603
40.658142
35.890961
27.432556
16.116089
3.026062
-10.490662
-22.743164
-31.975800
-36.925659
-37.401672
-34.578583
-30.748505
-28.532623
-29.898651
-35.476837
-44.445496
-55.072388
-65.567337
-74.802902
-82.643448
-89.652100
-96.535721
-103.633636
-110.694107
-116.941162
-121.429092
-123.375900
-122.428894
-118.636642
-112.400650
-104.371582
-95.415375
-86.572983
-78.934647
-73.426926
-70.531845
-70.028885
-71.038712
-72.305725
-72.613525
-71.139221
-67.689667
-62.559540
-56.334137
-49.626785
-42.973099
-36.825516
-31.613159
-27.769699
-25.648163
-25.358719
-26.736069
-29.401855
-32.908524
-36.846313
-40.890808
-44.719727
-47.845428
-49.482483
-48.686066
-44.566528
-36.671631
-25.262268
-11.332336
3.664642
18.182892
31.009216
41.373047
48.938690
53.653229
55.688080
55.431396
53.580536
51.015076
48.638947
47.069824
46.452667
46.474365
46.635071
46.570038
46.224731
45.791595
45.523895
45.486176
45.488312
45.162506
44.145691
42.200745
39.309662
35.554413
31.125580
26.212646
20.994934
15.637665
10.268951
4.944489
-0.340942
-5.588074
-10.673096
-15.272766
-18.798553
-20.546692
-19.848877
-16.380371
-10.272217
-2.139404
7.099670
16.447571
25.122803
32.580261
38.494568
42.681946
45.020264
45.453979
44.155823
41.514587
38.115417
34.595642
31.470276
29.006409
27.251038
26.096191
25.414001
25.076111
24.932190
24.749023
24.273010
23.267151
21.631042
19.399109
16.761597
13.882019
10.901794
7.804932
4.514771
0.899902
-3.172241
-7.832703
-13.145874
-19.068604
-25.359619
-31.470520
-36.618530
-39.883179
-40.489990
-38.042664
-32.658691
-24.959839
-15.898804
-6.531860
2.233337
9.721252
15.528992
19.429932
21.364441
21.434692
19.937378
17.377625
14.439148
11.827332
10.117859
9.590576
10.186340
11.513977
13.028625
14.221375
14.759033
14.558594
13.703247
12.391113
10.765991
8.906311
6.841553
4.543884
1.997009
-0.875000
-4.184875
-8.094482
-12.676941
-17.799744
-23.071533
-27.814514
-31.172058
-32.299927
-30.587585
-25.818176
-18.323608
-8.841553
1.592041
11.884399
21.113831
28.633057
34.049988
37.214722
38.168457
37.099487
34.392212
30.563538
26.212219
21.928101
18.147705
15.188293
13.196777
12.168091
11.954712
12.247498
12.621887
12.619263
11.880005
10.244202
7.779419
4.709656
1.278748
-2.356934
-6.170288
-10.207397
-14.595032
-19.458069
-24.927673
-31.022278
-37.590210
-44.162903
-49.921326
-53.831116
-54.850281
-52.263916
-45.905090
-36.279724
-24.457031
-11.809937
0.301208
10.792847
19.011780
24.700012
27.966003
29.149231
28.740662
27.319824
25.476990
23.699890
22.302368
21.369324
20.818542
20.527222
20.487427
20.865356
21.992676
24.123352
27.195862
30.717957
33.864502
35.783264
35.926025
34.337219
31.646362
28.778687
26.570862
25.291443
24.487366
23.027954
19.517883
12.803467
2.507080
-10.642700
-24.646362
-36.490051
-42.639771
-39.943970
-26.609192
-3.046387
27.852051
61.202393
91.392029
113.657104
125.427429
126.720337
119.716064
107.580627
93.390137
79.439148
67.121338
57.064941
49.333435
43.398376
38.147186
32.032135
23.576965
11.970764
-2.500763
-18.461304
-33.923645
-47.027893
-56.640900
-62.657288
-65.831116
-67.496796
-69.041565
-71.527466
-75.356445
-80.285828
-85.587494
-90.468201
-94.522186
-97.954224
-101.563263
-106.383392
-113.190430
-122.144928
-132.671448
-143.574524
-153.374359
-160.642456
-164.344910
-164.097717
-160.191986
-153.601288
-145.650635
-137.779266
-131.155670
-126.487335
-123.937866
-123.045776
-122.770966
-121.631500
-117.972290
-110.461090
-98.471161
-82.366455
-63.372864
-43.187073
-23.455750
-5.418579
10.155518
22.979187
33.113647
41.036255
47.620117
54.017273
61.330627
70.165344
80.442139
91.424744
102.135132
111.823669
120.215576
127.381836
133.485352
138.445251
141.836182
143.093994
141.811523
137.988525
132.112000
125.087219
118.016968
111.934326
107.584167
105.240173
104.724182
105.481750
106.812866
108.062256
108.795044
108.717468
107.525574
104.748047
99.716919
91.763916
80.560242
66.454285
50.540161
34.455627
19.888000
8.039917
-0.675720
-6.637512
-10.687012
-13.736572
-16.383545
-18.834106
-20.914429
-22.154785
-21.829102
-19.073914
-13.082886
-3.443542
9.561829
24.888916
40.965393
56.205444
69.406067
79.835083
87.046082
90.492126
89.380005
82.850281
70.528503
52.971985
31.891235
9.838623
-10.432556
-26.746094
-37.925110
-43.934204
-45.508362
-43.733582
-39.619019
-33.936646
-27.288208
-20.219971
-13.206421
-6.648590
-0.846588
3.906433
7.217926
8.564911
7.441132
3.697144
-2.188202
-9.124329
-15.751282
-20.958923
-24.253326
-25.774567
-25.969482
-25.238159
-23.737183
-21.580688
-19.109253
-17.056335
-16.387451
-17.840576
-21.488373
-26.699707
-32.314209
-37.207214
-40.692749
-42.901764
-44.584961
-46.770508
-50.302673
-55.467957
-61.816864
-68.290070
-73.481079
-76.016022
-74.968292
-70.135010
-62.026123
-51.756989
-40.669708
-30.057556
-20.923889
-13.983612
-9.737915
-8.536194
-10.571442
-15.779388
-23.701599
-33.556244
-44.325745
-55.014343
-64.815796
-73.301392
-80.230164
-85.534973
-89.048645
-90.483276
-89.343567
-85.100525
-77.264038
-65.417542
-49.319916
-29.131012
-5.623322
19.852570
45.605377
70.215057
93.019226
114.173676
134.323181
153.921036
172.765213
190.009308
204.869003
217.368530
228.692093
240.629745
254.515732
270.150208
285.671204
298.276855
305.423767
305.810059
299.646118
288.242645
273.508209
257.368500
241.532913
227.236252
215.221771
205.467255
197.175385
188.860504
178.862869
165.953430
149.875488
131.482178
112.502487
94.953735
80.507996
69.891083
62.596390
57.055634
51.243851
43.497406
33.153198
20.577637
6.762421
-7.452698
-21.772644
-36.431824
-51.712433
-67.388641
-82.481079
-95.360779
-104.108276
-106.958923
-102.544250
-90.114746
-69.747070
-42.702271
-11.590454
19.796753
47.187439
66.896179
76.706604
76.272644
67.000610
51.446228
32.639893
13.580688
-3.189453
-15.934692
-23.967041
-27.798218
-28.932495
-29.346069
-31.518799
-36.961548
-45.701172
-56.400879
-67.090942
-75.806030
-80.856812
-81.227783
-76.948730
-70.287598
-64.583740
-63.098999
-67.815186
-78.834839
-94.350830
-111.386719
-126.951416
-139.180420
-149.722534
-161.179565
-175.512329
-193.464966
-215.086548
-240.054565
-267.145386
-293.442505
-313.868530
-327.081665
-330.976562
-322.619507
-300.003662
-264.826782
-222.686523
-180.298584
-142.474854
-110.206055
-91.864990
-91.720093
-107.049316
-129.820557
-152.688354
-172.511108
-189.323730
-204.331177
-217.513794
-244.869263
-297.119995
-372.575439
-458.397949
-540.504761
-610.469971
-665.666992
-707.215210
-736.296265
-776.909180
-846.831787
-947.482300
-1065.197632
-1183.882080
-1294.051636
-1392.951904
-1481.744995
-1440.505249
-1214.064087
-838.504028
-418.778442
-47.829224
236.277222
437.566650
576.689087
661.426392
719.556274
746.818726
737.593628
697.748047
644.672180
595.311279
557.795349
535.586121
525.639954
526.392517
519.092163
491.758606
446.030792
394.923492
352.103943
324.506226
312.393433
311.897644
319.997498
322.228790
308.628723
278.577850
239.515060
200.245316
166.054962
138.500015
116.739746
100.644958
84.092621
63.055603
37.757019
11.964111
-10.337769
-27.154694
-38.435242
-45.310272
-48.471436
-50.833008
-54.383606
-59.374268
-64.607971
-68.636169
-70.621582
-70.400269
-68.294861
-64.583313
-59.836365
-54.543213
-48.980469
-43.187012
-36.989197
-30.041077
-22.052673
-12.962646
-2.984131
7.414917
17.692627
27.460938
36.707031
45.777954
55.271851
65.725098
77.344971
89.865112
102.676147
115.138672
126.836182
137.808838
148.524902
159.706909
172.126221
186.575317
203.698730
223.765869
246.132568
268.781128
288.399048
301.047363
303.571777
294.808350
276.100586
250.754639
222.598877
194.603394
168.218872
143.601318
120.596680
99.514038
81.269409
66.909058
56.939331
51.033447
48.166382
47.264648
47.947144
50.186157
53.888306
58.455078
62.779297
65.534912
65.611084
62.446167
56.217773
48.189697
40.070435
33.558105
29.890259
29.689453
32.959839
39.093994
47.116089
55.937622
65.423706
75.575684
86.081177
96.130615
104.745361
111.259277
115.390625
117.236084
116.896118
116.567871
117.538208
119.341064
119.887329
117.015015
110.073608
100.130737
89.324585
79.864746
77.930054
87.589355
108.651733
136.289551
163.580444
184.628906
196.000977
197.040283
189.691284
185.365234
194.368530
221.014160
261.472778
307.213135
350.041992
384.846924
410.008545
426.592651
446.864014
481.029053
531.846558
593.351440
655.755249
711.446655
757.144775
793.019897
761.070801
630.415039
410.320679
149.631104
-96.134705
-294.560669
-439.603516
-539.708374
-606.966431
-651.840515
-672.308289
-666.590271
-638.450745
-598.385010
-558.585449
-527.063660
-506.033875
-493.536865
-486.262573
-473.888763
-449.507904
-412.949463
-370.698547
-331.026276
-299.139954
-275.826569
-258.758514
-245.684357
-230.335449
-208.776932
-181.172760
-151.649338
-125.503845
-106.376099
-95.477386
-92.202408
-95.019234
-99.421165
-101.219414
-97.927048
-89.460594
-77.323128
-63.455402
-49.513622
-36.800915
-26.214544
-17.388788
-9.767964
-3.241318
1.801636
4.832315
5.743830
5.053542
3.757032
2.785105
2.750227
3.551540
4.357948
3.844196
0.721203
-5.618313
-14.628532
-24.688354
-33.624477
-39.538963
-41.516022
-39.921707
-35.984310
-31.068336
-25.875107
-20.117500
-12.684921
-2.294052
11.788643
29.352882
49.190140
69.506828
88.412102
104.373833
116.511444
124.660400
129.260818
131.083420
131.058105
130.015411
128.673218
127.546188
126.993408
127.133331
127.857010
128.765900
129.288788
128.908997
127.359283
124.710831
121.276245
117.329529
112.886993
107.625671
101.033386
92.661499
82.377502
70.360016
56.994385
42.675659
27.742035
12.539551
-2.436005
-16.445526
-28.617767
-38.137573
-44.487610
-47.559723
-47.577484
-44.958984
-40.257263
-34.194031
-27.706238
-22.024475
-18.406799
-17.943909
-21.580933
-29.213806
-39.518738
-50.328918
-59.478882
-65.455444
-67.623169
-66.136963
-61.757019
-56.011902
-50.399048
-46.025635
-43.477234
-42.954651
-44.209717
-46.476929
-48.492371
-48.873962
-47.676147
-45.380310
-42.634399
-40.358704
-40.033386
-43.290100
-51.015991
-62.747742
-76.582703
-92.600037
-109.630127
-124.547485
-133.473755
-134.033936
-126.034424
-110.653687
-89.690002
-65.289429
-46.025635
-38.579224
-44.376099
-60.404907
-83.096619
-109.893555
-138.438782
-165.801025
-188.606567
-213.258423
-243.450684
-275.872375
-302.816162
-319.162598
-325.079407
-323.918152
-319.523254
-314.816223
-323.902161
-355.361755
-406.470825
-466.551147
-526.456787
-582.703125
-635.689087
-687.235962
-661.969788
-528.083740
-317.765869
-99.890747
77.296997
202.536072
285.376343
340.161682
378.843262
409.301025
423.647949
416.511169
392.273560
362.574646
336.951721
318.848999
307.437500
300.576843
296.382263
284.366241
258.636078
222.371735
185.115112
154.855560
134.654907
123.736877
119.537903
119.091644
113.930878
98.918579
75.402893
49.690948
27.405182
11.173187
0.989609
-4.653458
-7.803314
-13.261581
-24.221466
-40.847519
-60.701843
-81.108231
-99.120712
-111.079361
-112.868118
-101.376373
-77.444160
-45.275589
-12.067093
17.563255
39.826920
53.724224
61.133488
65.192947
68.394096
71.532425
74.031525
75.020157
74.504837
73.006874
71.411858
70.122742
68.602844
65.669144
60.273613
52.153778
42.121059
31.871925
22.773701
15.570442
10.290764
6.031670
1.473969
-4.409943
-11.928001
-20.538704
-29.159821
-36.846405
-43.112350
-47.812515
-51.750061
-56.592133
-64.174866
-75.955215
-92.227814
-111.795807
-132.264038
-150.837891
-164.686844
-172.552032
-174.878906
-173.272400
-169.568359
-164.875061
-159.087952
-150.855988
-142.062408
-133.108185
-124.272064
-115.811096
-107.710083
-99.736816
-91.432251
-82.443176
-72.720428
-62.712952
-52.618713
-42.831787
-33.674194
-25.172607
-17.091980
-9.068176
-0.860291
7.531372
15.770203
23.792725
31.415100
38.540894
45.254578
51.742798
58.248291
64.880920
71.600769
78.193909
84.660767
90.972961
97.227600
103.592346
110.306091
117.607971
125.631287
134.401733
143.758179
153.445862
162.931152
171.440186
178.124268
182.328003
183.829346
182.836792
179.907227
175.611328
170.434204
164.711182
158.782959
153.172241
148.539917
145.436768
143.944824
143.550537
143.283081
142.192993
139.796021
136.161865
131.677734
126.768555
121.550293
115.863159
109.521362
102.429321
94.594971
86.012817
76.433105
65.509399
52.784058
37.934814
21.014282
2.762329
-15.451660
-31.802490
-44.412842
-51.783936
-52.951904
-47.896240
-37.531128
-23.586304
-8.054688
7.084717
20.179810
29.941406
35.577026
37.283081
35.767334
31.878296
26.324585
19.658691
12.427734
5.403198
-0.458130
-4.198730
-4.092529
0.554443
8.748901
17.961304
25.303101
28.890015
28.482666
25.110107
20.250488
17.528564
19.320801
25.692627
34.367188
42.199219
46.880920
47.636169
44.987244
40.020813
37.949158
42.947021
56.519714
76.758545
100.061646
123.416626
145.546265
166.627930
187.690674
215.416992
255.424072
309.405090
373.604797
440.542542
502.421753
553.660828
591.941345
585.054565
515.611572
387.177246
225.663574
64.267334
-73.720459
-180.122345
-257.098389
-310.807922
-347.753632
-368.299957
-372.860077
-364.191772
-348.045166
-330.910889
-317.061096
-307.700806
-301.861084
-298.112610
-291.438416
-278.356812
-258.449554
-234.661362
-211.435181
-192.193222
-178.207413
-168.852661
-162.486740
-154.694748
-142.006592
-123.424850
-100.982651
-78.493973
-59.505707
-46.011536
-38.341949
-35.664963
-35.440414
-35.392105
-34.257240
-31.968346
-29.083122
-25.921165
-22.424103
-18.517792
-14.537144
-10.838703
-8.147800
-7.289467
-8.561394
-12.153461
-17.416378
-23.336971
-29.081665
-34.360580
-39.367165
-44.627647
-50.602276
-57.467171
-64.892014
-71.840302
-76.727791
-77.826042
-73.861679
-64.749519
-51.940754
-38.080116
-26.019184
-17.725088
-13.408487
-11.710590
-10.447468
-7.762968
-2.943439
3.367403
9.837458
15.135912
18.487991
19.871189
19.615511
18.071188
15.479429
11.818637
6.979027
1.072714
-5.433968
-11.740660
-16.890350
-20.161295
-21.307058
-20.527628
-18.510260
-16.083126
-13.846886
-12.023041
-10.442829
-8.784397
-6.764095
-5.261837
-4.825233
-5.795601
-8.074718
-11.191353
-14.426498
-17.119930
-18.939266
-20.041210
-20.979645
-22.374771
-24.829983
-28.609116
-33.432373
-38.323250
-41.796318
-42.182610
-38.130135
-29.042358
-15.235367
2.002243
20.769348
39.045227
55.103622
67.776321
76.483170
81.144058
82.081093
79.969460
75.719131
70.410263
65.079956
60.523903
57.139908
54.800270
53.024796
51.214615
48.952835
46.184151
43.133369
40.056740
37.008232
33.674171
29.474243
23.823769
16.441277
7.490669
-2.452881
-12.621941
-22.305588
-31.034706
-38.686089
-45.454063
-51.770737
-58.065285
-64.574272
-71.037346
-76.595169
-79.909317
-79.484558
-74.196167
-63.701973
-48.625305
-30.361794
-10.765457
8.366798
25.483521
39.459534
49.565552
55.499138
57.384888
55.830986
51.873817
46.808304
41.934341
38.217178
36.141991
35.617233
36.127296
36.993698
37.640610
37.790848
37.442741
36.787270
35.895714
34.685600
32.869507
30.116440
26.248947
21.360970
15.771606
9.911438
4.156868
-1.273361
-6.328407
-11.169033
-16.135460
-21.615173
-27.842133
-34.616814
-41.186298
-46.228458
-48.260715
-46.135998
-39.555904
-29.230289
-16.712406
-3.938335
7.353840
15.982559
21.490395
23.976549
23.856346
21.668119
17.902750
13.073988
7.700619
2.402883
-2.233449
-5.734410
-7.843129
-8.589385
-8.200299
-6.992639
-5.244635
-3.159416
-0.893450
1.351697
3.178132
4.078255
3.556384
1.321053
-2.604029
-7.833545
-13.789941
-19.874481
-25.718777
-31.246672
-36.620171
-42.037716
-47.590195
-53.123203
-58.215977
-62.273304
-64.594498
-64.478577
-61.355606
-54.910324
-45.271782
-33.099861
-19.543203
-5.974869
6.234859
16.024982
22.803160
26.433641
27.179352
25.604610
22.418106
18.458382
14.561264
11.432225
9.530948
9.068897
9.965907
11.946216
14.538106
17.144157
19.154728
20.129383
19.887936
18.623562
16.769970
14.777479
12.902466
11.135080
9.249054
7.013937
4.309064
1.121167
-2.549023
-6.764860
-11.738918
-17.528870
-23.826284
-29.809542
-34.224831
-35.734455
-33.393356
-27.006111
-17.204283
-5.348357
6.977270
18.362017
27.878153
35.105713
40.010456
42.712326
43.343037
42.131390
39.395325
35.708115
31.740231
28.081249
25.061543
22.746979
21.014194
19.740368
18.925274
18.639139
18.927101
19.630764
20.372133
20.637293
19.959936
18.013638
14.729662
10.276449
4.954229
-0.790394
-6.510748
-11.895613
-16.906029
-21.838263
-27.198389
-33.378525
-40.268127
-47.150726
-52.759655
-55.651352
-54.770977
-49.700565
-40.848331
-29.273479
-16.313480
-3.290035
8.656319
18.667255
26.138195
30.680485
32.246147
31.124435
27.953064
23.627171
19.073746
15.068188
12.108978
10.344364
9.651825
9.792393
10.504623
11.537060
12.683781
13.685257
14.265511
14.129265
13.044281
10.905533
7.762459
3.796677
-0.690643
-5.322380
-9.792809
-13.901627
-17.674973
-21.355774
-25.320251
-29.922569
-35.283073
-41.079651
-46.437386
-50.119591
-50.798294
-47.480530
-39.904602
-28.684975
-15.247711
-1.365547
11.304832
21.646217
29.163513
33.909538
36.154617
36.245193
34.487862
31.239182
26.963776
22.205292
17.465698
13.157486
9.506554
6.599953
4.428581
2.993004
2.198303
1.906807
1.865982
1.749962
1.212929
-0.047523
-2.229630
-5.400650
-9.392502
-13.872353
-18.392540
-22.556679
-26.201553
-29.448647
-32.686226
-36.343201
-40.656837
-45.503685
-50.369682
-54.384628
-56.554993
-55.980072
-52.117035
-44.974213
-35.139793
-23.711075
-12.061005
-1.532219
6.770447
12.074760
14.024857
12.734825
8.788750
3.256958
-2.539635
-7.308578
-10.215614
-11.066139
-10.336670
-8.853119
-7.365852
-6.307518
-5.595230
-4.909248
-3.926880
-2.601231
-1.205204
-0.268253
-0.373165
-1.947140
-5.212742
-10.104656
-16.406162
-23.750763
-31.774082
-40.095181
-48.348980
-56.101337
-62.837303
-67.991394
-71.028748
-71.500908
-69.130295
-63.868999
-55.829971
-45.345104
-32.962261
-19.458452
-5.874935
6.603905
16.872589
24.191360
28.387753
29.884975
29.553921
28.405121
27.329823
26.866337
27.229614
28.329933
29.917053
31.643814
33.139313
34.074295
34.225304
33.565285
32.194450
30.274017
27.870667
24.861137
21.001541
16.079033
10.015709
2.964050
-4.738632
-12.672234
-20.353928
-27.197136
-32.437157
-35.214462
-34.757347
-30.708984
-23.333344
-13.474396
-2.250229
9.360657
20.772034
31.869888
42.724579
53.394135
63.669373
73.177673
81.551376
88.680084
94.845825
100.669540
106.891068
114.100937
122.499191
131.807190
141.461746
150.790833
159.311142
166.890305
173.647446
179.806458
185.384109
190.017197
192.944626
193.198120
189.879257
182.488312
170.974167
155.768250
137.640305
117.559685
96.587738
75.782074
56.109623
38.330627
22.968252
10.303485
0.431571
-6.537913
-10.459133
-11.204964
-8.960621
-4.423485
1.030113
5.685455
7.776329
6.134178
0.431381
-8.671082
-19.876358
-31.552734
-42.264099
-51.004761
-57.422012
-61.743576
-64.716919
-67.316071
-70.287872
-73.761902
-77.079407
-78.937164
-78.134308
-74.090698
-67.374908
-59.453430
-52.188812
-46.915833
-44.018860
-42.809601
-42.134613
-40.995911
-39.005096
-36.317841
-33.218262
-29.696869
-25.413391
-19.891388
-13.253540
-6.284058
-0.380737
3.131653
3.585815
1.407104
-2.379639
-6.947327
-12.521179
-20.437927
-32.461670
-49.678284
-71.561401
-95.947388
-120.054993
-141.469177
-159.115723
-173.051514
-183.803589
-191.479126
-195.702332
-195.879395
-191.985840
-184.765625
-175.521118
-165.352661
-154.640625
-142.937744
-129.525208
-114.092041
-97.205505
-80.121460
-64.304260
-50.694885
-39.264221
-28.879883
-17.703674
-3.657349
14.868042
38.422852
66.226135
96.319519
126.096863
153.006104
175.151703
191.548553
201.884766
206.333038
205.356995
199.726044
190.604523
179.454559
167.719757
156.464722
146.055542
136.220337
126.378479
116.109192
105.453857
95.044373
85.718933
78.244019
72.774963
68.785461
64.956482
59.584473
50.834351
37.116394
17.419128
-8.387695
-39.568604
-74.536865
-111.137878
-147.068359
-180.240723
-208.811035
-231.142639
-245.598694
-250.571533
-244.906616
-228.674316
-203.619629
-173.316101
-142.109375
-113.896667
-90.907776
-73.348145
-59.974304
-49.237793
-40.159119
-32.548645
-26.512329
-21.908203
-17.780640
-12.657471
-4.939941
6.196716
20.635315
37.238159
54.327759
70.075195
82.934814
91.607483
95.184998
93.413635
87.093628
78.081482
68.871338
61.515503
56.544922
52.475586
46.492554
35.808228
19.448120
-1.177246
-22.572937
-40.762329
-52.756775
-57.389526
-55.002319
-46.827515
-34.259949
-18.729858
-1.986206
13.683655
25.832764
32.449158
32.788147
27.561707
18.840820
9.225952
1.294067
-3.054382
-2.939453
1.413635
8.785339
17.222595
24.695496
29.657532
31.534119
30.746216
28.362427
25.530273
23.008911
20.928955
19.021851
16.918030
14.494019
11.853455
9.158630
6.184875
2.189941
-3.901733
-12.957092
-24.910217
-38.306091
-50.457520
-58.151550
-58.801819
-51.501465
-37.383789
-19.124390
0.042542
17.406982
31.475281
41.930115
49.155823
53.825378
56.560608
58.039490
59.111694
60.745422
63.796509
68.569702
74.548218
80.413574
84.499390
85.393066
82.551819
76.498535
68.528870
60.266296
52.970215
47.209900
42.762756
38.926025
34.944763
30.359985
25.126160
19.434326
13.437012
7.096802
0.260620
-6.994385
-14.106445
-19.931641
-23.036133
-22.286011
-17.385742
-9.149414
0.652710
9.911255
16.833130
20.443359
20.574341
17.630005
12.110107
4.480469
-4.766846
-14.816040
-24.409180
-32.113159
-36.850220
-38.332397
-37.261963
-34.967285
-32.756104
-31.434204
-31.177368
-31.839966
-33.268677
-35.451782
-38.387573
-41.826660
-45.270264
-48.177856
-50.398682
-52.431641
-55.247925
-59.836548
-66.571533
-74.915161
-83.422729
-90.138550
-93.218628
-91.379395
-84.265991
-72.447266
-57.731567
-42.146118
-27.461182
-14.771729
-4.603149
2.925293
7.955078
10.748779
11.630737
10.561646
7.824219
4.213379
0.899292
-1.093384
-1.269287
0.280640
2.964233
5.989136
7.673706
6.998901
4.191772
0.388062
-3.299072
-6.397705
-9.136963
-12.168945
-16.207397
-24.232178
-37.471313
-54.344604
-71.413208
-85.952026
-97.380493
-106.746338
-115.583740
-124.625732
-138.734619
-159.245117
-182.347656
-201.371338
-211.788452
-213.432495
-209.232056
-202.813721
-196.861816
-201.215820
-220.801025
-252.392212
-287.158081
-317.533447
-340.517334
-356.465332
-366.951294
-373.746094
-390.028564
-424.420044
-475.420410
-533.238525
-587.768433
-633.026733
-666.765808
-689.010193
-630.590820
-465.935730
-227.954529
15.166687
212.495056
349.796326
436.058075
486.616119
514.805359
529.832458
525.946777
500.044373
457.836334
411.884338
373.110596
346.252594
330.841309
324.032013
322.671295
315.511536
296.232300
267.192017
237.059662
213.136810
199.039993
193.917648
194.890533
198.864883
198.093399
188.807358
173.028931
156.913376
145.819244
141.653137
143.078583
147.466888
152.139023
152.631714
147.258102
137.510895
127.193161
120.035667
118.466431
123.408569
134.816177
151.952499
168.751205
180.319366
183.010315
175.455475
158.547760
134.932739
107.950920
80.598846
54.757080
31.167536
10.550859
-6.406139
-18.775253
-25.771849
-27.362827
-24.569305
-19.210367
-13.295439
-8.453648
-5.251146
-3.843364
-3.903460
-4.933042
-6.305045
-7.404870
-7.795895
-7.330141
-6.231411
-4.720037
-3.194508
-1.954697
-1.098457
-0.608959
-0.366436
-0.371803
-0.731762
-1.655045
-3.094048
-4.802193
-6.228416
-6.753006
-6.005676
-4.139137
-1.923668
-0.562454
-1.129883
-4.182419
-9.554306
-16.435493
-23.669327
-30.055923
-34.463364
-35.959061
-33.863571
-27.953766
-18.621552
-6.880783
5.827820
18.073975
28.861435
37.758331
44.717941
49.718369
52.566589
52.939590
50.660110
46.049957
39.975998
33.580917
27.949249
23.595856
20.431152
17.935211
15.429596
12.407089
8.733932
4.508728
0.003510
-4.509918
-8.836426
-12.905487
-16.719635
-20.403931
-24.053925
-27.674500
-31.119385
-34.164642
-36.657410
-38.733948
-40.900757
-43.865234
-48.157074
-53.712250
-59.672058
-64.552277
-66.793884
-65.371277
-60.269073
-52.429810
-43.300781
-34.239380
-25.952667
-18.490875
-11.535248
-4.924042
0.980469
5.360138
7.311035
6.436768
3.235168
-1.066772
-4.993774
-7.541870
-8.580048
-8.784698
-9.102722
-10.115936
-11.695526
-13.163940
-13.754517
-13.185425
-11.809662
-10.440796
-9.865509
-10.473022
-12.196014
-14.721100
-17.806854
-21.495514
-26.063599
-31.844635
-38.961914
-47.218323
-55.938507
-64.097809
-70.452484
-73.807068
-73.475250
-69.436401
-62.408173
-53.597687
-44.142151
-34.851410
-25.958588
-17.410797
-9.213501
-1.791962
4.120880
7.747650
8.737366
7.392731
4.538940
1.158386
-2.021332
-4.703888
-6.958313
-8.882355
-10.410736
-11.326752
-11.401489
-10.680634
-9.626343
-9.009552
-9.552094
-11.636383
-15.052460
-19.123230
-22.966888
-25.876770
-27.630859
-28.659790
-29.871887
-32.360138
-36.902344
-43.591095
-51.519897
-58.935608
-63.677887
-63.887817
-58.621582
-48.193878
-33.993317
-17.997711
-2.124542
12.222534
24.229584
33.574951
40.167358
43.947845
45.074005
43.924530
41.199066
37.700531
34.141968
30.920837
28.129471
25.685303
23.553055
21.905319
20.994522
20.968155
21.757629
22.938828
23.842087
23.763672
22.170441
18.775269
13.737579
7.559479
0.923019
-5.537476
-11.534073
-17.274597
-23.356903
-30.425690
-38.732086
-47.743332
-56.170929
-62.207428
-64.121094
-60.840088
-52.250412
-39.223175
-23.272728
-6.192078
10.380692
25.144562
37.280594
46.378807
52.382011
55.530777
56.315941
55.345184
53.260620
50.632385
47.841583
45.011566
42.110825
39.004333
35.613087
32.103516
28.789932
26.027985
24.058132
22.844162
22.026188
21.037090
19.245178
16.136309
11.528116
5.567263
-1.236184
-8.282876
-15.081467
-21.457178
-27.584791
-33.698662
-39.827568
-45.443962
-49.509747
-50.745125
-48.160980
-41.493164
-31.240835
-18.471416
-4.374838
10.039970
24.081648
37.200146
48.875687
58.561157
65.754105
70.156921
71.839470
71.163589
68.677467
64.957428
60.520042
55.862030
51.430859
47.544888
44.317513
41.511017
38.677170
35.414867
31.598373
27.472706
23.474823
19.873493
16.534920
12.981380
8.715866
3.614567
-2.014473
-7.731651
-13.352753
-19.202362
-25.802551
-33.403526
-41.349777
-48.190666
-52.136066
-51.913361
-47.273983
-39.074856
-28.717594
-17.530807
-6.339226
4.471107
14.647202
23.734844
31.024506
35.764240
37.566471
36.551952
33.343380
28.825096
23.866310
19.098213
14.895721
11.381680
8.492210
5.999065
3.573917
0.925468
-2.132706
-5.609818
-9.387199
-13.246849
-17.010414
-20.644157
-24.133118
-27.534149
-30.822060
-34.063644
-37.337860
-40.934052
-45.168060
-50.234810
-55.923164
-61.431206
-65.522293
-66.771400
-64.030304
-56.790031
-45.336136
-30.711739
-14.437241
1.847488
16.701889
29.005051
38.041603
43.379143
44.962540
43.103874
38.574524
32.590881
26.572723
21.838783
19.141602
18.517265
19.331055
20.623077
21.600677
21.940910
21.858574
21.714340
21.710365
21.641335
20.985771
19.154579
15.793503
10.917305
4.796616
-2.258659
-10.020905
-18.426285
-27.390045
-36.660568
-45.602921
-53.204971
-58.239487
-59.631302
-56.771286
-49.812317
-39.597412
-27.359299
-14.340775
-1.529343
10.396057
20.878021
29.302490
35.017044
37.566467
36.946152
33.807404
29.262970
24.551498
20.612793
17.887634
16.351379
15.668869
15.407700
15.170639
14.603409
13.519974
11.865265
9.786972
7.590881
5.608063
3.971405
2.585266
1.129486
-0.747742
-3.356522
-6.869034
-11.393478
-17.085815
-24.060898
-32.191360
-40.854965
-48.741241
-54.063461
-55.035934
-50.507263
-40.475937
-26.179581
-9.646240
6.930954
21.876266
34.258850
43.775269
50.404648
54.155350
55.000397
53.122574
49.065094
43.851044
38.668137
34.551208
32.051636
31.143555
31.359879
32.079575
32.761963
33.089218
32.985535
32.485168
31.638947
30.408432
28.612305
25.980942
22.258713
17.354202
11.414139
4.753281
-2.327789
-9.662811
-17.275482
-25.190460
-33.156448
-40.397583
-45.737091
-47.829422
-45.763870
-39.344940
-29.250946
-16.755722
-3.301117
9.933716
22.170624
32.967133
41.967789
48.736572
52.744431
53.643463
51.552567
47.195312
41.708969
36.299301
31.737030
28.168640
25.194183
22.262192
19.020035
15.532333
12.093781
8.964722
6.162170
3.366806
0.125244
-3.899567
-8.778091
-14.283340
-20.055817
-25.794205
-31.415848
-37.056549
-43.055435
-49.729568
-57.221146
-65.220642
-72.956299
-79.175888
-82.574112
-82.179367
-77.745697
-69.895203
-59.911697
-49.296143
-39.447205
-31.377930
-25.753296
-22.996796
-23.415024
-27.087906
-33.838531
-43.041046
-53.739960
-64.931183
-75.855621
-86.195557
-96.146210
-106.331024
-117.586884
-130.780884
-146.487854
-164.736267
-184.868073
-205.474640
-224.676788
-240.619232
-252.062714
-258.802094
-261.876099
-263.289520
-265.612244
-271.391510
-282.507721
-299.381989
-320.397736
-341.557526
-357.007812
-360.434204
-346.856537
-314.328094
-264.690918
-202.873383
-135.288208
-67.933289
-5.103516
50.920227
99.301025
139.841248
172.651001
198.203003
217.752075
233.358093
247.323303
261.336731
275.540283
288.438965
297.353821
299.704712
294.130981
281.168091
263.092163
243.018066
223.862915
207.587769
194.855469
185.216797
177.460693
170.034424
161.381348
150.203613
135.868530
118.753296
100.241089
82.372192
67.143921
55.928223
49.077515
46.201538
46.670776
49.981079
55.873779
63.995972
73.539795
83.206909
91.489258
97.253662
100.125732
100.589478
99.541748
97.860352
95.928589
93.671753
90.797607
87.190186
83.043579
78.952759
75.591064
73.395996
72.310181
71.798096
71.018799
69.238281
66.125977
61.876831
57.023438
52.228271
47.878784
44.094849
40.721802
37.489746
34.125488
30.296997
25.571167
19.565308
12.197021
4.049438
-3.577026
-8.940552
-10.545044
-7.708374
-0.878296
8.615601
19.099243
29.171875
37.916382
44.903442
49.858521
52.534302
52.685669
50.307007
45.776123
39.887573
33.666138
28.042725
23.662720
20.803711
19.358887
19.038086
19.407471
20.083984
20.708496
20.964355
20.628174
19.573120
17.839478
15.630859
13.230103
10.885986
8.625244
6.207886
3.125854
-1.263794
-7.472900
-15.663574
-25.396973
-35.602783
-44.733887
-51.109497
-53.428589
-51.125854
-44.571899
-34.797974
-23.150757
-10.823120
1.386108
13.021606
23.696777
32.928711
40.065308
44.502319
45.970093
44.676270
41.240112
36.488647
31.197510
25.965332
21.213135
17.240234
14.244629
12.294434
11.214111
10.621338
9.964233
8.718628
6.547852
3.425903
-0.376587
-4.411011
-8.244507
-11.611450
-14.434326
-16.811401
-18.909790
-20.810425
-22.424927
-23.505981
-23.722656
-22.684570
-20.084961
-15.715088
-9.532959
-1.751587
7.051270
16.010132
24.106079
30.400757
34.356750
35.939819
35.486572
33.533081
30.509827
26.731323
22.383545
17.721497
13.104797
8.934387
5.443054
2.495667
-0.431641
-4.140564
-9.472961
-17.004028
-26.841919
-38.574097
-51.367676
-64.252319
-76.290833
-86.740967
-95.168152
-101.366394
-105.379700
-107.519531
-108.428894
-108.890808
-109.632385
-110.878784
-112.058105
-111.848511
-108.605103
-101.105408
-89.109436
-73.584106
-56.391357
-39.607178
-24.864807
-12.922729
-3.763794
3.157166
8.411804
12.390869
15.264465
17.126221
18.152344
18.582458
18.726196
18.853943
19.092163
19.452637
19.918457
20.517212
21.327087
22.438904
23.841980
25.412720
26.874390
27.970215
28.486206
28.309875
27.347351
25.491638
22.651978
18.787354
13.969360
8.369751
2.210693
-4.234070
-10.631897
-16.411682
-20.809998
-22.918640
-22.087830
-18.188049
-11.752258
-3.749023
4.757202
12.969727
20.417175
26.833801
31.901672
35.141663
36.108459
34.593811
30.810547
25.402527
19.185608
12.959106
7.330994
2.661316
-0.887207
-3.246887
-4.448608
-4.530457
-3.575806
-1.747375
0.632507
3.068970
4.965149
5.782166
5.191589
3.253418
0.285461
-3.279724
-7.175293
-11.400513
-16.219299
-21.960144
-28.815613
-36.610535
-44.650208
-51.784058
-56.646362
-58.028381
-55.319153
-48.755615
-39.395569
-28.713074
-18.173279
-8.818115
-1.190918
4.513733
8.219666
9.889893
9.509155
7.359924
4.033691
0.391724
-2.671204
-4.516418
-4.983032
-4.310486
-3.053345
-1.757324
-0.750610
-0.003357
0.760681
1.880188
3.518188
5.539551
7.530457
8.989868
9.524536
9.071594
7.825623
6.114990
4.120605
1.862610
-0.862183
-4.234741
-8.236206
-12.448547
-16.102173
-18.233704
-17.984680
-14.862122
-8.971619
-0.932129
8.232605
17.420959
25.626709
32.138062
36.490112
38.551758
38.400818
36.367188
32.956360
28.800293
24.465027
20.416992
16.901367
14.026062
11.797363
10.199829
9.154480
8.518677
8.087036
7.624695
6.899597
5.776672
4.191895
2.183960
-0.165649
-2.691101
-5.217896
-7.578369
-9.750610
-11.873047
-14.230103
-17.121277
-20.680908
-24.684082
-28.579651
-31.477722
-32.499023
-30.995850
-26.834045
-20.447388
-12.784485
-4.960876
2.064270
7.763062
12.037537
15.099060
17.148499
18.295044
18.524414
17.887634
16.572327
14.985168
13.546265
12.559021
12.085388
11.955444
11.893311
11.675232
11.107849
10.109131
8.719116
7.082947
5.418701
3.986389
2.911377
2.204895
1.724365
1.268127
0.619141
-0.462219
-2.351807
-5.480713
-10.176331
-16.375885
-23.441559
-30.142395
-35.062103
-37.047333
-35.562592
-30.844574
-23.719818
-15.226868
-6.459686
1.707825
8.632233
13.891968
17.301819
18.878387
18.824860
17.468658
15.242432
12.595703
9.992371
7.841095
6.327209
5.426483
4.877625
4.328613
3.512360
2.349579
0.936127
-0.546875
-2.014069
-3.558319
-5.464478
-8.038605
-11.508636
-15.858917
-20.755524
-25.740601
-30.408295
-34.635254
-38.591309
-42.587646
-46.712280
-50.477692
-52.875854
-52.619446
-48.830200
-41.485931
-31.537842
-20.552002
-10.167847
-1.450073
5.256958
10.200256
13.847778
16.486481
18.141693
18.626801
17.788208
15.698578
12.730652
9.493073
6.585632
4.478271
3.347900
3.066132
3.359741
3.948425
4.681152
5.547546
6.572479
7.722626
8.869263
9.845825
10.417877
10.459503
9.866638
8.590607
6.615814
3.934143
0.541016
-3.461975
-7.883484
-12.296051
-16.017334
-18.170197
-17.919159
-14.789307
-8.933441
-1.161407
7.294464
15.130676
21.329742
25.372650
27.138245
26.776154
24.583984
20.982452
16.491241
11.747681
7.347168
3.734192
1.070679
-0.792786
-2.210571
-3.576508
-5.243774
-7.371674
-9.862335
-12.464417
-14.827484
-16.676086
-17.926697
-18.767670
-19.520142
-20.518677
-22.048401
-24.237030
-27.142700
-30.751007
-34.944794
-39.391205
-43.453033
-46.228943
-46.746796
-44.267700
-38.562988
-30.015656
-19.580750
-8.479218
2.039886
11.039215
18.021820
22.967133
26.155670
27.974060
28.679169
28.374603
27.018829
24.643158
21.451447
17.853363
14.303741
11.159943
8.573242
6.509247
4.819214
3.439941
2.375641
1.699799
1.416534
1.398773
1.337250
0.872375
-0.298981
-2.285492
-5.019531
-8.332306
-12.069763
-16.180725
-20.630615
-25.184174
-29.243134
-31.854553
-31.927826
-28.626099
-21.802155
-12.063843
-0.632965
11.165955
22.295074
32.332428
41.319946
49.457794
56.703613
62.638062
66.582062
67.901367
66.345398
62.357452
57.051819
51.877991
48.079010
46.223206
45.924530
46.109528
45.496796
43.239227
39.278198
34.360321
29.631683
26.122894
24.253754
23.759857
23.858765
23.615723
22.235291
19.220551
14.380066
7.743408
-0.335144
-9.165436
-17.704346
-24.679932
-28.940277
-29.741974
-27.103027
-21.773438
-14.989319
-7.992615
-1.640167
3.695831
7.990662
11.199371
12.988098
12.826111
10.224060
5.146667
-1.799438
-9.485596
-16.627289
-22.196655
-25.710815
-27.213684
-27.142090
-26.069641
-24.596039
-23.163361
-22.068695
-21.400452
-21.102875
-21.032898
-21.071930
-21.232910
-21.590820
-22.297699
-23.501526
-25.376923
-28.173920
-32.145004
-37.378738
-43.480286
-49.537872
-54.144974
-55.862396
-53.718643
-47.566284
-38.164749
-26.906174
-15.381348
-5.022461
3.241821
9.066162
12.646698
14.497498
15.188629
15.117889
14.467651
13.246490
11.497101
9.387726
7.251465
5.369049
3.880005
2.726685
1.704620
0.624420
-0.593933
-1.954590
-3.470306
-5.206482
-7.293762
-9.844971
-12.807571
-16.038788
-19.307617
-22.418640
-25.280655
-27.908768
-30.345139
-32.524460
-34.114853
-34.504471
-32.913712
-28.677094
-21.551346
-11.979706
-0.958862
10.254364
20.601746
29.485779
36.791748
42.605438
46.943878
49.615662
50.385559
49.270874
46.834869
44.013153
41.845764
41.012665
41.534210
42.758789
43.659607
43.219299
40.840668
36.454193
30.478516
23.618011
16.635345
10.082947
4.244659
-0.890594
-5.539642
-10.019699
-14.623795
-19.600845
-25.041733
-30.885574
-36.815460
-42.261337
-46.485596
-48.810699
-48.785812
-46.342651
-41.733551
-35.518448
-28.383179
-21.131104
-14.574142
-9.518951
-6.598602
-6.177261
-8.196289
-12.184708
-17.310501
-22.471771
-26.502167
-28.445496
-27.803726
-24.750061
-20.101868
-15.157227
-11.204727
-9.066360
-8.818192
-9.915619
-11.474304
-12.771591
-13.467590
-13.686752
-13.789444
-14.154053
-15.057220
-16.647980
-19.080444
-22.529221
-27.044189
-32.430161
-38.016373
-42.695343
-45.092529
-44.103348
-39.234116
-30.855865
-20.127991
-8.501587
2.665222
12.537140
20.786926
27.348755
32.244537
35.469727
37.152039
37.713898
37.877686
38.461548
40.076569
42.810242
46.218719
49.515686
51.967834
53.094299
52.823578
51.362122
49.022034
46.073822
42.733917
39.157440
35.503204
31.887177
28.281067
24.487701
20.166656
14.871338
8.274811
0.334045
-8.570129
-17.666382
-25.940887
-32.384979
-36.187286
-36.857330
-34.292725
-28.756683
-20.816345
-11.274078
-1.000061
9.160095
18.566345
26.685181
33.061157
37.250275
38.946259
38.122833
35.249634
31.251160
27.312286
24.419403
23.075531
23.171753
24.164001
25.415802
26.411987
26.840179
26.500366
25.248108
22.971100
19.653046
15.510284
10.907684
6.250610
1.819275
-2.303680
-6.248322
-10.194031
-14.329193
-18.763321
-23.482803
-28.356216
-33.176834
-37.567551
-41.029785
-42.948761
-42.739639
-39.950409
-34.527191
-26.797729
-17.460205
-7.409943
2.498535
11.546417
19.219742
25.149109
29.051956
30.768692
30.445312
28.574692
25.921677
23.329819
21.373718
20.215424
19.637680
19.256165
18.754929
18.015320
17.075699
16.075272
15.142700
14.412292
14.009552
14.063171
14.595245
15.444138
16.234039
16.449203
15.547180
13.193863
9.206238
3.662079
-3.170822
-10.837357
-18.746567
-26.200577
-32.526672
-37.103699
-39.410721
-39.123505
-36.137741
-30.662476
-23.355820
-15.191467
-7.261490
-0.441025
4.829086
8.570404
11.041489
12.455627
12.775131
11.809845
9.389496
5.653648
1.082237
-3.593346
-7.606850
-10.398613
-11.712120
-11.590607
-10.319351
-8.319252
-6.101181
-4.144272
-2.840919
-2.381676
-2.788986
-3.910400
-5.567596
-7.589531
-9.893738
-12.440727
-15.233078
-18.278404
-21.682785
-25.663002
-30.530319
-36.497116
-43.421700
-50.584862
-56.655106
-59.980240
-59.198494
-53.712006
-44.013371
-31.516026
-18.050617
-5.316204
5.522312
13.899010
19.639935
22.805626
23.620571
22.524677
20.247452
17.729492
15.813732
14.951946
15.047935
15.583458
15.939861
15.750195
15.015747
14.116459
13.505592
13.552464
14.336639
15.647839
17.043232
18.027805
18.192947
17.372402
15.705101
13.539574
11.190456
8.761185
6.042271
2.575317
-2.038177
-7.866802
-14.452389
-20.799961
-25.719841
-28.156708
-27.527617
-23.885469
-17.866110
-10.439177
-2.726215
4.302565
9.934946
13.810978
15.888254
16.350325
15.506113
13.746948
11.469755
9.144817
7.217041
6.094413
6.007714
6.919912
8.479085
10.073288
11.094354
11.171005
10.337041
8.989262
7.684289
6.873949
6.736135
7.206045
8.038944
9.031865
9.924234
10.369301
9.826324
7.599204
3.067235
-3.993937
-13.232625
-23.680111
-34.004990
-42.842682
-49.089836
-52.051918
-51.531528
-47.685928
-41.033440
-32.373016
-22.686403
-13.062111
-4.568331
1.907135
5.737782
6.720539
5.192362
1.969940
-1.829393
-5.127737
-7.217804
-7.991604
-7.883017
-7.559231
-7.630453
-8.319046
-9.544043
-10.974436
-12.322302
-13.405489
-14.140285
-14.464399
-14.276159
-13.457710
-11.984949
-9.989670
-7.728325
-5.518038
-3.690504
-2.504192
-2.221937
-3.076300
-5.312227
-9.039120
-14.117237
-19.971338
-25.649586
-30.008711
-32.044373
-31.224384
-27.642151
-21.939426
-15.054008
-7.857733
-1.032492
5.017408
9.965829
13.582900
15.663605
16.166733
15.229010
13.192830
10.434219
7.327419
4.218386
1.538103
-0.212094
-0.551113
0.754555
3.438902
6.768328
9.717611
11.385067
11.279875
9.361059
5.934641
1.394377
-3.900427
-9.633059
-15.493900
-21.161320
-26.354374
-30.978138
-35.113453
-38.902050
-42.326321
-45.126442
-46.689640
-46.349751
-43.655231
-38.586628
-31.627899
-23.644897
-15.457191
-7.615044
-0.199211
7.085579
14.602409
22.490173
30.558777
38.407013
45.746635
52.623642
59.403587
66.487244
73.988022
81.467674
88.141731
93.219406
96.236954
97.136795
96.142937
93.454567
89.094719
83.000282
75.210442
66.063042
56.189957
46.332405
37.122223
28.902565
21.662308
15.062683
8.698051
2.194427
-4.455032
-10.830078
-16.113056
-19.369240
-19.926315
-17.668762
-13.138329
-7.230759
-0.896812
5.151352
10.554623
15.204880
19.180868
22.521729
25.242006
27.204159
28.185848
27.827261
25.810173
21.922829
16.192276
8.956412
0.848748
-7.221642
-14.233402
-19.193686
-21.491501
-21.035984
-18.361488
-14.512234
-10.663963
-7.785484
-6.350769
-6.460682
-7.942165
-10.673206
-14.663837
-19.995598
-26.742779
-34.815716
-43.903137
-53.450027
-62.666473
-70.569038
-76.085327
-78.371437
-76.970596
-72.120338
-64.675743
-55.971588
-47.322937
-39.699249
-33.496490
-28.613037
-24.765076
-21.864578
-20.201317
-20.299347
-22.624870
-27.066696
-32.754807
-38.258263
-42.139320
-43.596222
-42.685417
-40.193253
-37.116302
-34.208969
-31.801826
-29.993355
-28.913399
-28.836990
-30.054775
-32.512177
-35.643841
-38.503170
-40.188484
-40.283413
-39.079113
-37.325554
-35.786945
-34.805931
-33.945881
-32.118748
-27.938969
-20.285652
-8.727081
6.135485
22.919558
39.880966
55.468498
68.779686
79.607620
88.166481
94.680779
99.113602
101.211105
100.777863
98.046539
93.650894
88.491928
83.362747
78.662125
74.373215
70.185982
65.630554
60.359730
54.111870
46.847118
38.745239
30.227741
22.053371
15.142241
10.333173
8.003881
7.879967
9.020513
10.100816
9.978403
8.140773
5.084420
2.079407
0.762849
2.462976
7.671764
15.916735
25.904734
36.108986
45.212326
52.427040
57.566940
60.745960
62.174919
61.921555
59.973602
56.376572
51.508743
46.120308
41.272850
37.991959
36.900093
37.917099
40.275337
42.905975
44.963173
46.237534
47.236191
48.934555
52.262100
57.588333
64.627441
72.366486
79.277618
83.432068
82.420303
73.290421
52.917160
19.313980
-26.881393
-81.119171
-135.194366
-179.128265
-203.980652
-204.455109
-179.976196
-134.028198
-72.389435
-1.623016
71.665375
140.739426
198.772202
239.615143
259.350616
257.700317
238.142288
206.645050
169.264847
130.045013
90.113342
48.498688
3.965302
-43.210815
-90.162231
-131.925995
-162.976440
-179.131042
-178.777222
-163.013428
-134.823120
-97.626038
-54.117432
-5.952759
45.458008
97.849670
147.223877
188.213043
215.471985
225.529388
218.326080
197.207764
167.706848
135.320740
103.553345
72.671448
40.273376
3.208313
-39.808899
-86.296143
-129.884644
-162.126099
-175.639099
-166.935730
-137.725037
-94.150818
-44.502258
3.337463
43.638611
73.122009
90.373352
95.153870
88.193970
71.371033
47.934326
22.074097
-2.213745
-22.409180
-38.176880
-51.113525
-63.669922
-78.017090
-94.941772
-113.617310
-132.009033
-147.728027
-159.041260
-165.473022
-167.916382
-168.302368
-168.741699
-170.774902
-174.971558
-180.905151
-187.413818
-193.068481
-196.461304
-196.465820
-192.368408
-183.920898
-171.470825
-155.967773
-138.843262
-121.632568
-105.614014
-91.484741
-79.310791
-68.797729
-59.586426
-51.545044
-44.813843
-39.621704
-36.073608
-34.091187
-33.293945
-33.190308
-33.284058
-33.159302
-32.637939
-31.755493
-30.642212
-29.383301
-27.918823
-26.045288
-23.559937
-20.592285
-17.703369
-15.843384
-16.026489
-18.928223
-24.633545
-32.602539
-41.902100
-51.444824
-60.364258
-67.983521
-73.857910
-77.847900
-80.087891
-81.130737
-81.946045
-83.785034
-87.861572
-94.829712
-104.208130
-114.271973
-122.299316
-125.424316
-121.692749
-110.859863
-94.441406
-75.132446
-55.766113
-38.464844
-24.319092
-13.664917
-6.553833
-3.039551
-3.014282
-5.806458
-10.013184
-13.720337
-15.172424
-13.492188
-8.923889
-2.524231
4.448975
11.147949
17.422241
23.550476
29.876343
36.385864
42.629456
47.865112
51.458130
53.097412
52.950378
51.519592
49.411743
47.138245
45.008484
43.105896
41.365051
39.569214
37.451538
34.578552
30.470154
24.743652
17.394348
9.002563
0.768982
-5.776184
-9.234680
-8.829834
-4.663635
2.346039
10.852600
19.485413
27.369812
34.251892
40.427948
46.399139
52.493561
58.597900
64.124969
68.313202
70.546326
70.682495
69.115295
66.622833
64.060699
62.072937
61.013794
60.942078
61.767197
63.204956
64.910187
66.403381
67.123932
66.618011
64.794662
61.995865
58.926208
56.233063
54.116806
52.120193
49.300735
44.710480
37.984116
29.501083
20.263718
11.359421
3.518509
-3.174973
-9.000046
-14.169449
-18.522629
-21.419220
-22.144455
-20.296158
-16.102211
-10.243111
-3.437195
3.829773
11.531364
19.624077
27.799377
35.110168
40.326309
42.345528
40.820244
36.282364
30.042000
23.715240
18.668182
15.786442
15.262012
16.720917
19.310314
21.933334
23.521759
23.381035
21.436977
18.194719
14.598396
11.373150
8.902195
7.030303
5.304083
3.214517
0.438046
-3.218901
-8.005740
-14.281565
-22.362942
-32.265671
-43.195068
-53.454056
-60.728088
-62.808266
-58.377838
-47.612450
-32.000175
-13.843842
4.597839
21.764877
36.900448
49.820461
60.506577
68.776588
74.356613
77.110283
77.264618
75.392853
72.274445
68.529701
64.549133
60.362526
55.927773
51.273651
46.681686
42.626686
39.566910
37.700165
36.766685
36.090446
34.834282
32.322693
28.355637
23.238068
17.589714
12.050606
7.024178
2.567833
-1.512169
-5.566719
-9.996185
-15.209740
-21.555962
-29.147186
-37.540512
-45.686073
-52.009872
-54.894669
-53.212128
-46.739388
-36.190994
-23.020218
-8.916580
4.526085
16.121162
25.123756
31.295715
34.795670
36.135605
36.067001
35.380074
34.772560
34.659737
35.141464
36.010971
36.849949
37.223007
36.747246
35.286335
32.888157
29.822620
26.430607
23.018616
19.766750
16.694740
13.615746
10.247559
6.303295
1.676350
-3.487003
-8.821564
-13.974522
-18.849205
-23.799870
-29.488403
-36.464233
-44.743546
-53.552860
-61.447338
-66.886673
-68.722244
-66.596786
-60.874203
-52.328499
-41.773117
-29.833773
-17.056274
-4.105066
8.077646
18.307831
25.474257
28.868315
28.489227
25.109539
20.048956
14.769930
10.535376
8.055206
7.439747
8.336727
10.193783
12.437925
14.666784
16.518866
17.656811
17.721548
16.486212
13.966517
10.461239
6.422451
2.293257
-1.712577
-5.619529
-9.608288
-13.860364
-18.539242
-23.762653
-29.565254
-35.775528
-41.905945
-47.033474
-49.990517
-49.676891
-45.546593
-37.798462
-27.330170
-15.368317
-3.137537
8.518955
19.081738
28.245167
35.695889
41.170658
44.451847
45.561424
44.831108
42.838608
40.189949
37.323002
34.334480
31.146519
27.662218
24.026632
20.593193
17.757196
15.685361
14.163813
12.620143
10.400949
7.057070
2.590983
-2.644510
-8.095545
-13.317290
-18.128382
-22.680534
-27.350231
-32.547970
-38.457649
-44.850704
-50.960102
-55.589142
-57.399654
-55.459080
-49.507874
-40.113815
-28.320536
-15.282749
-1.931447
11.075429
23.193775
33.769253
42.023590
47.226101
49.022842
47.576725
43.620529
38.183334
32.312893
26.791702
22.031004
18.064096
14.721779
11.677345
8.611130
5.289236
1.645617
-2.200981
-5.984045
-9.373047
-12.156872
-14.279381
-15.846695
-17.109545
-18.339720
-19.902321
-22.149441
-25.532951
-30.418161
-36.963692
-44.742462
-52.632393
-58.866180
-61.460411
-58.971951
-51.044113
-38.576977
-23.380461
-7.556803
7.170250
19.756674
29.697412
36.858402
41.172432
42.672935
41.553108
38.316734
33.738808
28.721844
24.097349
20.457195
18.126713
17.129757
17.188978
17.766712
18.223782
18.016506
16.822844
14.684359
11.836765
8.629118
5.219564
1.682394
-1.983500
-5.705202
-9.342102
-12.864304
-16.635017
-21.385983
-27.887756
-36.361996
-45.926468
-54.551559
-59.709621
-59.301888
-52.596771
-40.472420
-25.044876
-8.699690
6.740908
20.415312
32.159710
41.904778
49.286018
53.645798
54.485287
51.925243
46.892975
40.830238
35.125961
30.661312
27.530098
25.307848
23.364868
21.273422
18.889345
16.315138
13.620686
10.733555
7.461338
3.617233
-0.880001
-6.013834
-11.824745
-18.374689
-25.723721
-33.830635
-42.477051
-51.421867
-60.556419
-69.987686
-79.801620
-89.673622
-98.435173
-104.042572
-104.102432
-96.686058
-81.291687
-59.134483
-32.897217
-5.861048
19.096140
40.129112
56.494354
68.182953
75.499245
78.775208
78.344482
74.752014
68.820755
61.593529
54.095520
47.104542
40.938557
35.623386
30.972965
26.818577
23.120541
19.941067
17.371674
15.419293
13.913218
12.475620
10.656296
8.104897
4.774198
1.056874
-2.366006
-4.814897
-6.047116
-6.385720
-6.697433
-7.873597
-10.418063
-14.035385
-17.747702
-20.293299
-20.627647
-18.360865
-13.726702
-7.393114
-0.149658
7.275328
14.175823
19.822412
23.326809
23.893539
21.064754
15.057903
6.789351
-2.324812
-10.861568
-17.764755
-22.606392
-25.482151
-26.776884
-26.887800
-26.184034
-25.073721
-24.068228
-23.726641
-24.493212
-26.439442
-29.184954
-31.993685
-34.111706
-35.048676
-34.771202
-33.657433
-32.343571
-31.491558
-31.527756
-32.440929
-33.630699
-34.016663
-32.342499
-27.551847
-19.325708
-8.120338
4.932156
18.497997
31.436430
42.961456
52.618473
60.102188
65.152405
67.656387
67.792854
66.031143
63.036224
59.427605
55.550716
51.516273
47.384193
43.363823
39.862812
37.388268
36.180630
36.076057
36.400452
36.333412
35.138584
32.495323
28.462698
23.407043
17.778643
11.946379
6.094044
0.218840
-5.950556
-12.928516
-21.267944
-31.190720
-42.199966
-52.840366
-60.940033
-64.253464
-61.378220
-52.330692
-38.616653
-22.633133
-6.801483
7.154625
18.426258
26.871719
32.529945
35.412598
35.513092
33.103951
28.910309
24.102440
19.882782
17.158020
16.325165
17.341553
19.875694
23.534538
27.779762
31.852684
34.749046
35.442688
33.156715
27.801399
19.973343
10.804413
1.532394
-6.717995
-13.341217
-18.221573
-21.867294
-25.281151
-29.799583
-36.657616
-46.454918
-58.687607
-71.708183
-83.096863
-90.480049
-92.315384
-88.326828
-79.535416
-67.799332
-55.249710
-43.726700
-34.435410
-27.813736
-23.613861
-21.105240
-19.347916
-17.574509
-15.391556
-12.901123
-10.476776
-8.653793
-7.657364
-7.467148
-7.718536
-7.970779
-7.810966
-7.002411
-5.508247
-3.553337
-1.578590
-0.220337
-0.045586
-1.431244
-4.260605
-8.005730
-11.806358
-15.062317
-17.651146
-20.198364
-23.842224
-29.720818
-38.452110
-49.797615
-62.707878
-75.580322
-86.626442
-94.112610
-96.484070
-92.595078
-81.953934
-65.051414
-43.445511
-19.534687
4.071274
25.119267
42.235901
54.939560
63.424232
68.193527
69.879166
69.179733
66.923904
63.954033
61.074623
58.747108
57.042770
55.677830
54.291706
52.598892
50.598763
48.535690
46.698784
45.254761
44.107262
42.924950
41.363064
39.335381
37.209770
35.600044
35.038094
35.462822
36.075634
35.509209
32.419262
26.094387
16.783764
5.594746
-5.817440
-15.810200
-23.009907
-26.541935
-26.017460
-21.624863
-14.034618
-4.328922
6.227215
16.475105
25.587589
33.172413
39.118431
43.447010
46.198578
47.386322
47.104076
45.468010
42.705315
39.095745
35.024353
30.952953
27.446974
25.046650
24.073343
24.452135
25.688374
26.988327
27.515755
26.683035
24.321590
20.632938
16.045353
10.948622
5.615288
0.144915
-5.393600
-10.937847
-16.379089
-21.725027
-27.116470
-32.899242
-39.388870
-46.560280
-53.802406
-59.930531
-63.458279
-63.175644
-58.466713
-49.644920
-37.663727
-23.859386
-9.625774
3.727871
15.023716
23.246338
27.645466
27.915489
24.391335
18.132584
10.752659
3.916504
-1.195877
-4.298653
-5.982040
-7.410614
-9.655762
-13.249107
-17.984642
-23.168137
-28.026894
-32.123856
-35.444489
-38.334702
-41.224365
-44.527176
-48.594467
-53.842094
-60.573280
-68.870895
-78.347145
-88.324898
-97.909668
-106.294937
-112.636337
-116.021362
-115.408051
-109.861710
-98.948486
-83.132111
-63.777069
-42.790237
-21.914982
-2.225746
15.987484
32.840885
48.385147
62.288914
73.824135
82.252914
87.207397
88.852585
87.827286
85.010986
81.222046
77.021561
72.677925
68.190437
63.600372
58.998661
54.642334
50.798721
47.595608
44.922707
42.484352
39.858391
36.771900
33.117287
29.004768
24.632780
20.264668
16.125505
12.449408
9.298668
6.589966
3.989428
1.020882
-2.850998
-8.017494
-14.592350
-22.436848
-31.118484
-39.962692
-48.088371
-54.467751
-58.153572
-58.514091
-55.446648
-49.377773
-41.163296
-31.702736
-21.753777
-11.815399
-2.262547
6.466671
13.798050
19.117287
21.991917
22.323742
20.388691
16.745598
12.074848
7.100761
2.533085
-0.910786
-2.637417
-2.270130
0.122650
4.016193
8.469082
12.384438
14.800655
15.144478
13.343262
9.764961
5.066174
0.012695
-4.706261
-8.511742
-11.061806
-12.225105
-12.222145
-11.545860
-10.952408
-11.220917
-12.888786
-16.005867
-20.066788
-24.145142
-27.166924
-28.301888
-27.116058
-23.636009
-18.160683
-11.162506
-3.195892
5.071007
12.808998
19.095894
23.102638
24.407837
23.195381
20.241791
16.732239
13.893227
12.568573
13.028885
14.987938
17.844040
20.959984
23.901817
26.385605
28.210091
29.121704
28.835922
27.125122
24.011871
19.766357
14.909554
9.983269
5.362068
1.151581
-2.782410
-6.700096
-10.854912
-15.442467
-20.601089
-26.462860
-33.056549
-40.264473
-47.587997
-54.136658
-58.664612
-59.887177
-56.870941
-49.428009
-38.325317
-25.074692
-11.519043
0.732620
10.718048
18.107529
23.031067
25.747238
26.531357
25.645737
23.482941
20.569519
17.412750
14.340942
11.410522
8.533722
5.656906
3.013763
1.087921
0.404480
1.234863
3.387299
6.302628
9.179886
11.322433
12.251877
11.812500
10.022552
7.110596
3.376785
-0.863983
-5.379074
-10.087143
-15.062943
-20.412231
-26.126770
-31.870010
-36.903503
-40.202560
-40.745758
-37.792007
-31.190704
-21.402771
-9.330002
3.905029
17.181992
29.580856
40.418930
49.205902
55.639938
59.530914
60.844330
59.726242
56.525665
51.868164
46.584518
41.579590
37.596741
35.099457
34.086594
34.212723
34.942825
35.826614
36.570694
37.111923
37.421295
37.476059
37.140549
36.255997
34.705338
32.512680
29.807480
26.785721
23.602829
20.247742
16.526154
12.105103
6.613708
-0.187592
-8.227905
-16.956558
-25.391479
-32.234833
-36.298569
-36.794586
-33.646652
-27.505341
-19.452148
-10.675278
-2.131180
5.600647
12.190598
17.412537
20.999527
22.722565
22.489258
20.536682
17.422882
13.883163
10.576538
7.859772
5.734467
4.029083
2.541946
1.177109
-0.012650
-0.974579
-1.760811
-2.561150
-3.626114
-5.171890
-7.228233
-9.690643
-12.369141
-15.100761
-17.855354
-20.676407
-23.687958
-27.053513
-30.967628
-35.627533
-41.182114
-47.472992
-53.939651
-59.573402
-63.152390
-63.560616
-60.212296
-53.191254
-43.166214
-31.169891
-18.285828
-5.517212
6.215401
16.110413
23.474129
27.900848
29.400146
28.526100
26.148613
23.256691
20.615074
18.595795
17.205994
16.237183
15.476204
14.851936
14.358482
13.971916
13.551048
12.795738
11.356583
9.060364
6.005547
2.534462
-0.962379
-4.161690
-7.061028
-9.888390
-13.053741
-16.971626
-21.936005
-28.110718
-35.444664
-43.596558
-51.857857
-59.103333
-63.987343
-65.241013
-62.176720
-54.912270
-44.407921
-32.156700
-19.708130
-8.302643
1.281128
8.670937
13.777817
16.662643
17.511765
16.653717
14.541901
11.721962
8.685799
5.893715
3.733139
2.597137
2.784409
4.457916
7.501228
11.484825
15.735123
19.523857
22.217178
23.419518
22.961571
20.891693
17.430878
12.907097
7.698502
2.218216
-3.193130
-8.326790
-13.102837
-17.645111
-22.098747
-26.451096
-30.392876
-33.279526
-34.300621
-32.764732
-28.363640
-21.306725
-12.243958
-2.023392
8.510895
18.567307
27.362762
34.095612
38.022949
38.738525
36.434250
31.906189
26.319565
20.846786
16.229065
12.736572
10.198196
8.294952
6.827515
5.786789
5.329315
5.636032
6.792465
8.606049
10.692444
12.491959
13.428223
13.127930
11.476791
8.668289
5.056717
0.978821
-3.464691
-8.369980
-13.918182
-20.131760
-26.640961
-32.616104
-36.936859
-38.417252
-36.240921
-30.198257
-20.748566
-8.922806
3.931549
16.428726
27.344650
35.708786
40.890213
42.612549
41.037659
36.791916
30.866608
24.365295
18.299103
13.290497
9.537766
6.876755
4.963409
3.456848
2.095200
0.798538
-0.398148
-1.326584
-1.812698
-1.754486
-1.247360
-0.593018
-0.266693
-0.786591
-2.559525
-5.795822
-10.515930
-16.623642
-23.983414
-32.366104
-41.393402
-50.396439
-58.371445
-64.056412
-66.207581
-63.876541
-56.745544
-45.281876
-30.761795
-14.988388
0.050308
12.600021
21.424942
25.983185
26.439590
23.602112
18.654114
12.912399
7.504700
3.136459
0.054245
-1.891983
-3.073120
-3.867371
-4.548065
-5.267273
-6.083725
-7.013901
-8.083878
-9.291885
-10.667969
-12.308151
-14.382431
-17.112457
-20.676422
-25.118500
-30.312317
-36.037247
-42.092789
-48.351501
-54.685272
-60.879425
-66.458298
-70.617798
-72.409836
-70.967346
-65.851898
-57.209595
-45.833496
-32.954468
-19.941650
-8.048981
1.807343
9.161774
13.948700
16.433533
17.048187
16.335449
14.823029
13.072845
11.635773
11.024689
11.653839
13.764465
17.348511
22.150269
27.729828
33.562500
39.123901
43.993256
47.834045
50.375000
51.426300
50.937408
48.959747
45.777679
41.737000
37.114777
32.007935
26.376831
20.195770
13.751404
7.759949
3.277252
1.303467
2.342865
6.143219
11.803772
18.145996
24.164368
29.201599
32.902588
35.036835
35.338898
33.595337
29.824280
24.444855
18.239105
12.092957
6.720551
2.457367
-0.750793
-3.161224
-5.042908
-6.537170
-7.584961
-8.114136
-8.133423
-7.780487
-7.275269
-6.798187
-6.345367
-5.765656
-4.796600
-3.285797
-1.297455
0.879456
2.752777
3.763672
3.484344
1.809692
-0.893951
-3.692902
-5.237579
-4.087524
0.792847
9.541168
21.269501
34.311951
46.784302
57.134460
64.472229
68.577271
69.659180
68.128876
64.503113
59.367126
53.427094
47.443787
42.141022
38.013641
35.305664
33.979797
33.780884
34.274689
34.908264
35.119720
34.467865
32.797913
30.263153
27.159851
23.707703
19.908508
15.533875
10.346924
4.251617
-2.617523
-9.959473
-17.514587
-25.074066
-32.353088
-38.751190
-43.264587
-44.638062
-41.810577
-34.418610
-23.118469
-9.434357
4.625427
17.189606
26.948761
33.356598
36.476379
36.747986
34.681366
30.761932
25.424072
19.115021
12.356018
5.750366
-0.102539
-4.697876
-7.737091
-9.231293
-9.520050
-9.198059
-9.005188
-9.582214
-11.315613
-14.173309
-17.771881
-21.538574
-24.974579
-27.837189
-30.193054
-32.424438
-35.068848
-38.657745
-43.573608
-49.866943
-57.094574
-64.312805
-70.189575
-73.257477
-72.428986
-67.209259
-57.928406
-45.569702
-31.449097
-16.885956
-2.993011
9.389130
19.657043
27.384766
32.372040
34.700317
34.705841
32.931091
30.013885
26.613129
23.293274
20.535645
18.721588
18.135040
18.866974
20.841248
23.691895
26.838409
29.509705
30.876404
30.313049
27.587982
23.008606
17.336639
11.482300
6.166382
1.644104
-2.279816
-6.137512
-10.517548
-15.950226
-22.804413
-31.121704
-40.430115
-49.588913
-56.809784
-60.148193
-58.111435
-50.274551
-37.495117
-21.688843
-5.043304
10.569977
23.965973
34.632019
42.411987
47.212036
48.963196
47.752655
43.996033
38.507385
32.355804
26.634857
22.206329
19.474060
18.349350
18.340118
18.796860
19.112427
18.972290
18.314377
17.256104
15.861954
14.044525
11.573517
8.304688
4.310669
-0.031677
-4.210724
-7.806229
-10.763153
-13.344803
-16.071411
-19.406876
-23.617416
-28.680328
-34.378860
-40.307449
-45.881607
-50.326096
-52.679749
-52.005264
-47.734924
-39.952438
-29.457153
-17.509415
-5.418182
5.872635
15.824936
24.188507
30.676361
34.803741
36.067596
34.293686
29.989029
24.369980
19.039612
15.365845
13.973343
14.565872
16.180206
17.762360
18.617340
18.654144
18.143234
17.370453
16.280930
14.474762
11.429047
6.850540
0.992599
-5.375015
-11.280945
-15.944839
-19.142807
-21.228577
-22.894608
-24.836945
-27.473953
-30.923203
-35.133446
-40.019440
-45.434471
-51.078110
-56.285500
-59.946686
-60.774277
-57.684586
-50.189087
-38.647636
-24.220924
-8.484810
6.918945
20.675728
31.931725
40.338356
45.868042
48.735779
49.205727
47.618843
44.432396
40.241234
35.795776
31.892784
29.152069
27.933418
28.187347
29.607857
31.712883
34.027481
36.071640
37.329552
37.235687
35.276421
31.148605
24.953217
17.193756
8.671745
0.271954
-7.244808
-13.408154
-17.988583
-21.073498
-23.044483
-24.505424
-26.197605
-28.812584
-32.726974
-37.891052
-43.674755
-48.998852
-52.435242
-52.539558
-48.209694
-38.965828
-25.161716
-7.891581
11.334234
30.988327
49.912281
67.364151
82.915848
96.241486
107.054367
115.089005
120.288116
122.885201
123.361542
122.342506
120.494751
118.375031
116.404015
114.788895
113.576340
112.662621
111.864983
111.125992
110.482529
109.983032
109.493439
108.399658
105.578934
99.476624
88.641510
72.267120
50.703629
25.520065
-0.833786
-25.791306
-47.418762
-64.978058
-78.974243
-90.690582
-101.598206
-112.753296
-124.464661
-136.231018
-146.952332
-155.233795
-159.735107
-159.609985
-154.744202
-145.857788
-134.264374
-121.475342
-108.694794
-96.580048
-85.319458
-74.965912
-65.732483
-58.052063
-52.384216
-48.892273
-47.207733
-46.508423
-45.811401
-44.310852
-41.565399
-37.577789
-32.662415
-27.308777
-22.016632
-17.182434
-13.023254
-9.648712
-7.126343
-5.705170
-5.761841
-7.698914
-11.699646
-17.423340
-23.938599
-29.999756
-34.510071
-37.010559
-37.769165
-37.656433
-37.581360
-38.211914
-39.820679
-42.431763
-45.952148
-50.220215
-54.859375
-59.117004
-61.731995
-61.196960
-56.194275
-46.122314
-31.417786
-13.574402
5.290161
23.071320
38.248505
50.159851
58.922058
65.058472
69.146667
71.490845
72.215515
71.407166
69.359985
66.587524
63.739380
61.382080
59.937622
59.613129
60.517029
62.563873
65.544556
69.070801
72.713562
76.068176
78.910004
81.223022
83.024048
84.261475
84.688812
83.802582
80.876221
74.934662
64.849945
49.480896
28.033691
0.527344
-31.816956
-66.572571
-100.476929
-130.138184
-152.803284
-166.926208
-172.285767
-169.808350
-161.036499
-147.719788
-131.475708
-113.782166
-95.983154
-79.451538
-65.493530
-55.061584
-48.504211
-45.351929
-44.410217
-44.233459
-43.628662
-41.987366
-39.413818
-36.440430
-33.576477
-31.073303
-28.807190
-26.442505
-23.640686
-20.260132
-16.279236
-11.823486
-6.927246
-1.617798
3.946899
9.267639
13.573303
16.004211
16.061035
13.806396
9.750793
4.455872
-1.921082
-9.817078
-19.874939
-32.355042
-46.600830
-60.977722
-73.331787
-81.796570
-85.348755
-84.014893
-78.572144
-70.045013
-59.333862
-47.066833
-33.558319
-19.170868
-4.497894
9.348450
20.798065
28.193756
30.536041
27.898438
21.721497
14.360077
8.397736
5.689575
6.994263
11.876678
19.196838
27.619690
35.979248
43.392670
49.174255
52.775055
53.849335
52.365356
48.701721
43.512024
37.557831
31.390533
25.320709
19.279327
13.047516
6.406372
-0.753387
-8.431793
-16.560181
-25.115845
-33.963104
-42.665344
-50.344330
-55.751434
-57.533630
-54.740540
-47.176483
-35.527054
-21.200394
-5.886230
8.889038
22.028183
32.895355
41.239227
46.987793
50.156555
50.914413
49.553329
46.541855
42.447037
37.757889
32.823837
27.890106
23.146774
18.867752
15.464050
13.375076
12.855026
13.880341
15.975327
18.417130
20.376160
21.103539
20.175957
17.612869
13.822563
9.500443
5.309357
1.525299
-2.096657
-6.276581
-11.855270
-19.306961
-28.440933
-38.408104
-47.907734
-55.569576
-60.259258
-61.139351
-57.704346
-49.832607
-37.807343
-22.433678
-5.143942
12.283197
28.029537
40.569420
49.120068
53.674240
54.818672
53.483997
50.573303
46.798729
42.637016
38.429115
34.435764
30.965355
28.289543
26.590460
25.940151
26.247021
27.302509
28.747829
30.073738
30.623814
29.759830
27.104832
22.732872
17.274483
11.619286
6.500824
2.135979
-1.943298
-6.642738
-12.755249
-20.484138
-29.142570
-37.256813
-43.070770
-45.086128
-42.555496
-35.645096
-25.304329
-12.946877
-0.026024
12.165009
22.735329
31.149643
37.219612
40.988869
42.672600
42.570015
41.084755
38.624809
35.534592
32.090240
28.472824
24.790955
21.161255
17.707199
14.625000
12.088684
10.266418
9.177597
8.694473
8.438232
7.842148
6.309586
3.382004
-0.999466
-6.444931
-12.205780
-17.490509
-21.795624
-25.106186
-27.928299
-30.967758
-34.810089
-39.537766
-44.576599
-48.776215
-50.745941
-49.309494
-43.881531
-34.606003
-22.281815
-8.029266
6.983002
21.742203
35.289566
46.665390
54.897751
59.262070
59.600601
56.569901
51.478973
45.903061
41.083496
37.599655
35.316879
33.728806
32.342972
30.954391
29.657440
28.682266
28.158340
27.940491
27.640060
26.822449
25.176300
22.656998
19.448441
15.881165
12.244186
8.600494
4.893860
1.049744
-2.947464
-7.027100
-11.113617
-15.251663
-19.579376
-24.069061
-28.345306
-31.522797
-32.487305
-30.320053
-24.773331
-16.356049
-6.227127
4.375946
14.466080
23.410690
30.857483
36.506577
39.994064
41.034012
39.628128
36.156158
31.420212
26.399719
21.988785
18.840637
17.154144
16.711670
17.011780
17.403534
17.295105
16.382416
14.669891
12.445816
10.167374
8.241959
6.837524
5.940521
5.343475
4.791916
4.094131
3.082092
1.542358
-0.720337
-4.008850
-8.583084
-14.390884
-20.988983
-27.511688
-32.787964
-35.769531
-35.791840
-32.802673
-27.271973
-19.966934
-11.656647
-3.047440
5.277115
12.808807
19.092140
23.790489
26.794701
28.191948
28.219627
27.130394
25.063591
22.041603
18.110672
13.403526
8.271584
3.293243
-0.952591
-4.062637
-5.963188
-7.035339
-7.930244
-9.252914
-11.400215
-14.346031
-17.747009
-21.243797
-24.675430
-28.194473
-32.151588
-37.017654
-43.034721
-50.240067
-58.295929
-66.475647
-73.726662
-78.806129
-80.558968
-78.377647
-72.400230
-63.423828
-52.652817
-41.218262
-29.885994
-19.116127
-9.193306
-0.528862
6.338806
10.937370
13.180832
13.378990
12.280556
10.690933
9.222649
8.145279
7.444298
6.982460
6.697563
6.659073
6.948524
7.514534
8.101761
8.181488
7.218796
4.838371
1.013771
-3.939835
-9.505318
-15.272270
-21.073738
-27.092453
-33.751328
-41.561615
-50.863785
-61.726944
-73.720291
-85.922455
-96.914795
-105.046906
-108.757416
-107.114487
-100.081314
-88.644791
-74.490082
-59.494995
-45.211151
-32.650879
-22.148453
-13.615387
-6.761230
-1.274445
3.157379
6.849747
10.151672
13.410202
16.876083
20.639893
24.621033
28.596039
32.415741
36.038025
39.611053
43.333313
47.350159
51.620239
55.931366
59.938019
63.331024
65.897552
67.590881
68.365417
68.189392
67.014404
64.842010
61.760101
57.924469
53.481781
48.552765
43.238068
37.815002
32.808472
29.015564
27.249390
28.073975
31.504547
36.977631
43.530914
50.152832
56.116608
61.113831
65.187225
68.452545
70.849335
72.048737
71.534607
68.944366
64.303589
58.219818
51.650269
45.593384
40.651947
36.893677
33.954010
31.324982
28.690277
26.023346
23.507660
21.314209
19.462708
17.735138
15.768219
13.224091
9.875946
5.673981
0.707855
-4.826385
-10.723663
-16.833160
-23.127411
-29.648102
-36.391693
-43.106628
-49.221771
-53.906891
-56.315613
-55.864655
-52.430267
-46.320099
-38.212463
-28.861755
-19.061829
-9.514771
-0.852264
6.349792
11.638367
14.775299
15.752625
14.862427
12.653595
9.738800
6.695770
3.926147
1.567047
-0.389160
-1.961700
-3.072998
-3.551147
-3.285858
-2.406311
-1.332428
-0.648163
-0.796082
-1.876007
-3.513229
-5.146027
-6.271866
-6.798523
-7.072433
-7.700653
-9.292084
-12.291199
-16.935852
-23.254654
-31.081024
-39.909164
-48.765366
-56.282318
-60.872238
-61.209000
-56.659302
-47.538284
-34.965744
-20.584595
-6.061661
7.232330
18.339554
26.730301
32.194839
34.815094
34.940094
33.188263
30.341202
27.186340
24.332611
22.097321
20.558228
19.587753
18.997787
18.651474
18.494736
18.435852
18.425262
18.324509
17.999817
17.318436
16.176300
14.500137
12.189484
9.174820
5.419815
0.939178
-4.218872
-10.039017
-16.576080
-23.923767
-32.091095
-40.883652
-49.719757
-57.662201
-63.552994
-66.332016
-65.334137
-60.544815
-52.482162
-42.042664
-30.192917
-17.845963
-5.796509
5.118546
14.038513
20.145065
22.935242
22.426926
19.245071
14.425064
9.095078
4.163589
0.174835
-2.691818
-4.481750
-5.471481
-6.073013
-6.783844
-8.054306
-10.120193
-12.920792
-16.246796
-19.896088
-23.932343
-28.663330
-34.508408
-41.582840
-49.586960
-57.711304
-64.992401
-70.646973
-74.459518
-76.741730
-78.116196
-78.997070
-79.252686
-77.986816
-73.840439
-65.424515
-51.896454
-33.372498
-10.959396
13.529709
37.864441
59.832855
77.440094
89.192993
94.248016
92.740845
85.917480
76.052765
65.937012
58.084900
53.919891
53.497162
55.777954
59.451965
63.636444
68.184509
73.258362
78.739044
83.762604
86.961151
87.130890
84.005066
78.552002
72.542267
67.701416
64.898407
63.858429
63.466888
62.367218
59.428253
53.933929
45.585999
34.424072
20.967896
6.188782
-8.367645
-20.942642
-29.923065
-34.334290
-34.127838
-30.177521
-23.915146
-16.932343
-10.601944
-5.907608
-3.432373
-3.438080
-5.826859
-10.188110
-15.737823
-21.502090
-26.538406
-30.233063
-32.394531
-33.241394
-33.161880
-32.447617
-31.214157
-29.450180
-27.156326
-24.333130
-21.239563
-18.396851
-16.410568
-15.779572
-16.571671
-18.536575
-21.153839
-23.977921
-26.670364
-29.323975
-32.512650
-37.044601
-43.554169
-52.068130
-61.942505
-71.986496
-80.751770
-86.527954
-88.069199
-85.090393
-78.305771
-69.037201
-58.683090
-48.511459
-39.589920
-32.906921
-28.179657
-25.188904
-24.224396
-26.102753
-31.332703
-39.519089
-49.572983
-60.344604
-71.136292
-79.606750
-84.532074
-86.942886
-89.996536
-96.845551
-108.373413
-122.543671
-135.198807
-141.635986
-134.546158
-109.702103
-68.477158
-17.615753
34.743698
83.036438
125.547089
163.502197
199.522003
241.290924
295.033905
362.142059
438.119812
515.725525
588.301514
650.915527
700.280151
703.451294
640.432434
516.542786
363.002319
215.536102
95.994659
10.036331
-46.432274
-81.039093
-101.627533
-109.836624
-106.317368
-93.611679
-77.621719
-64.119293
-55.854012
-53.268963
-55.068264
-59.781914
-62.730057
-60.690979
-53.964630
-47.162277
-44.751369
-47.946999
-54.086243
-58.209023
-55.807373
-42.814224
-19.723343
12.451263
45.766312
71.773178
85.769623
88.233109
83.512268
76.796478
72.813095
73.347992
77.238495
80.830780
81.310699
77.483795
69.099518
55.806854
36.840363
12.313843
-16.081757
-44.822205
-70.237915
-89.246460
-100.859436
-106.363708
-108.097961
-107.734497
-105.249512
-99.525696
-90.057800
-79.079834
-70.940125
-70.713501
-81.758667
-104.112976
-134.820068
-169.727783
-205.714355
-241.734314
-278.098816
-314.459167
-348.202881
-374.479553
-387.796936
-384.717834
-365.544434
-334.407104
-297.493103
-260.649597
-227.301392
-198.005493
-171.288696
-145.123352
-118.133911
-90.049988
-61.680847
-34.502625
-10.355347
8.984253
22.199646
28.935608
30.157532
27.675659
23.620544
19.456787
15.597961
11.601562
6.803284
0.965759
-5.410095
-11.395630
-16.090698
-19.055176
-20.330566
-20.350098
-19.571594
-18.375671
-17.051331
-15.894409
-15.157043
-15.032593
-15.453735
-16.142456
-16.775513
-17.211731
-17.620117
-18.404724
-19.983826
-22.566467
-26.151062
-30.583008
-35.620789
-41.002441
-46.183777
-50.238953
-51.857849
-49.682617
-42.856140
-31.464996
-16.650085
-0.223511
15.897522
30.292542
42.289825
51.726868
58.725769
63.340424
65.558624
65.422485
63.255371
59.640991
55.392303
51.296844
47.925873
45.615295
44.444550
44.279144
44.722946
45.153870
44.811157
42.988800
39.370758
34.113205
27.849258
21.362274
15.365097
10.294174
6.367645
3.443466
1.037613
-1.747833
-6.172226
-13.428009
-23.849991
-36.420517
-48.603363
-57.139542
-59.330490
-54.240311
-43.051849
-28.379974
-12.972183
1.322784
13.852638
24.699497
33.910255
40.950474
44.928741
45.164024
41.699059
35.392765
27.767965
20.274563
14.013069
9.504690
6.880821
5.985172
6.538769
8.100952
10.215645
12.354012
14.035614
14.927979
14.878761
13.923958
12.366524
10.613701
9.057404
7.907959
7.147308
6.447891
5.361908
3.380219
0.043335
-4.853546
-11.075500
-17.769287
-23.385834
-25.997849
-23.914932
-16.270828
-3.416611
13.035843
30.833389
47.688766
61.921967
72.651520
79.702393
83.280975
83.775909
81.642975
77.509155
72.192688
66.602509
61.507111
57.310059
54.004761
51.264374
48.709778
46.152435
43.687134
41.680420
40.482025
40.260315
40.817596
41.617279
41.864929
40.798370
37.875000
32.977997
26.488098
19.160156
11.777649
4.848999
-1.715302
-8.457825
-16.021606
-24.542664
-33.258331
-40.547791
-44.447754
-43.386261
-36.893158
-25.789612
-11.904388
2.597870
15.816498
26.570038
34.402435
39.405670
41.921478
42.290771
40.799133
37.704803
33.359772
28.282501
23.109741
18.569458
15.237640
13.469788
13.261566
14.343567
16.231812
18.380402
20.329926
21.754456
22.450226
22.271210
21.136047
19.018982
16.034607
12.485931
8.755951
5.203796
1.912079
-1.412628
-5.320129
-10.222687
-16.007446
-21.777252
-26.059509
-27.351074
-24.755035
-18.353455
-9.160919
1.369263
11.839233
21.262909
29.104156
35.137817
39.232574
41.329651
41.455200
39.849884
36.948120
33.250824
29.177490
24.979218
20.805725
16.769470
13.053925
9.938110
7.649475
6.355011
6.036072
6.482391
7.330963
8.170959
8.612305
8.469299
7.781860
6.681824
5.229919
3.297882
0.479523
-3.709595
-9.539276
-16.764587
-24.502167
-31.318878
-35.673859
-36.354401
-32.901764
-25.653503
-15.669281
-4.307404
7.073975
17.400909
25.883575
32.009460
35.453949
36.076935
34.008209
29.684021
23.847260
17.424133
11.276733
6.060577
2.070099
-0.674164
-2.372253
-3.297516
-3.725647
-3.920868
-4.156830
-4.677460
-5.728821
-7.526398
-10.175186
-13.647644
-17.781143
-22.297119
-26.973129
-31.776428
-36.961472
-42.959229
-50.137283
-58.429398
-67.105087
-74.711746
-79.412750
-79.509903
-74.052429
-63.220200
-48.317780
-31.377609
-14.535416
0.531494
12.874771
22.232590
28.686188
32.330811
33.183456
31.344772
27.225601
21.759079
16.200424
11.805649
9.336639
8.823578
9.634277
10.912766
11.928726
12.416840
12.482193
12.385223
12.237366
11.882095
10.928787
9.010605
5.922302
1.727936
-3.297943
-8.841187
-14.725677
-21.047714
-28.032242
-35.782608
-43.976059
-51.667252
-57.428482
-59.703018
-57.347672
-50.050110
-38.537125
-24.279831
-9.140594
5.168396
17.345993
26.585083
32.515503
35.075043
34.468826
31.230408
26.266144
20.743408
15.851501
12.551544
11.169022
11.383331
12.327988
12.978409
12.537018
10.767334
7.940765
4.722672
1.819229
-0.317261
-1.573395
-2.163864
-2.533447
-3.231796
-4.757812
-7.510574
-11.725800
-17.496704
-24.781525
-33.250732
-42.164902
-50.259369
-55.920929
-57.538025
-54.073044
-45.460312
-32.691956
-17.446442
-1.546432
13.600433
27.065063
38.365112
47.085388
52.710327
54.806458
53.279755
48.712280
42.342896
35.746857
30.337738
26.963104
25.709503
26.000488
26.945953
27.658386
27.549896
26.332703
24.049652
20.959106
17.478271
14.092010
11.258636
9.259644
8.044403
7.150726
5.766541
2.953430
-1.995148
-9.365143
-18.714127
-28.968246
-38.464890
-45.392380
-48.182510
-45.968735
-38.814285
-27.655258
-13.997192
0.534286
14.569824
27.121155
37.557266
45.375244
50.179413
51.691437
49.919525
45.296112
38.700211
31.246292
23.966415
17.613266
12.548981
8.763229
6.050278
4.132645
2.736725
1.632629
0.596069
-0.651031
-2.341980
-4.702957
-7.812836
-11.635757
-16.052292
-20.923248
-26.171570
-31.799332
-37.817337
-44.178162
-50.695175
-57.001038
-62.547699
-66.608734
-68.389526
-67.196884
-62.530701
-54.370392
-43.169785
-29.922867
-15.885590
-2.286469
9.960968
20.361282
28.750671
35.088608
39.239090
40.997757
40.276581
37.350647
33.019058
28.485443
25.035278
23.544952
24.173203
26.306305
28.842865
30.647812
31.005646
29.775436
27.381012
24.514877
21.885101
19.914642
18.582672
17.527618
16.186417
13.974716
10.495117
5.493774
-1.091614
-9.131714
-18.167084
-27.234650
-34.836380
-39.210693
-38.851669
-33.168030
-22.891037
-9.974640
3.051010
13.992447
21.694031
26.188522
28.363083
29.236649
29.452545
29.105728
27.982773
25.928406
23.085556
19.862335
16.752289
14.110504
12.086746
10.743073
10.193253
10.545425
11.774063
13.473419
14.941422
15.319626
14.045792
10.999466
6.538422
1.267929
-4.225204
-9.554718
-14.537926
-19.195297
-23.666183
-28.199089
-33.064232
-38.373138
-43.739960
-48.210159
-50.351509
-48.848511
-43.022278
-33.348282
-21.292229
-8.826302
2.282463
10.963196
16.929543
