1428500616.000000
64.000000
-0.000000
-0.000000
-0.000000
-0.000000
-0.000000
-0.000000
-0.000000
-0.000000
-0.000000
-0.001906
0.005050
0.011799
0.011441
-0.002118
-0.027838
-0.052562
-0.051397
0.005085
0.137632
0.363225
0.659866
0.994466
1.332634
1.655373
1.968508
2.299627
2.683991
3.142146
3.703212
4.324040
4.951945
5.534797
6.047275
6.506771
6.969399
7.506138
8.156652
9.002728
9.944715
10.867208
11.659148
12.281139
12.808262
13.419468
14.331957
15.683006
17.660868
20.041140
22.537971
24.865791
26.896761
28.757179
30.802402
33.471828
37.048782
41.833122
47.399349
53.182747
58.618492
63.424614
67.766357
72.205727
77.450287
83.964424
92.145943
101.360016
110.740211
119.425079
126.966415
133.554092
139.934204
147.398575
154.638733
163.742493
175.176514
188.953918
203.817764
216.832031
223.707184
219.987045
202.668060
171.359802
128.839813
79.032227
25.898453
-28.059387
-82.103973
-136.536346
-191.579834
-246.640900
-300.386230
-350.978607
-397.365387
-438.937164
-475.245209
-505.449249
-528.051270
-541.132874
-542.838745
-532.112305
-508.857666
-474.403320
-430.934174
-381.009857
-327.103210
-271.273499
-215.101746
-159.809784
-106.495026
-56.151245
-9.890411
31.333344
66.873352
96.516357
120.497833
139.385284
153.892090
164.674606
172.265244
176.984665
179.064133
178.740433
176.319931
172.198746
166.817398
160.593277
153.847763
146.791534
139.533859
132.124420
124.608841
117.045425
109.514359
102.103249
94.883171
87.898544
81.173767
74.713852
68.523087
62.611450
56.988129
51.665226
46.653805
41.953529
37.560173
33.467800
29.665766
26.149385
22.911148
19.945654
17.245636
14.810133
12.628483
10.693098
8.991156
7.510871
6.234387
5.147322
4.230220
3.464908
2.835169
2.324028
1.915473
1.590778
1.341575
1.152832
1.014287
0.916522
0.847245
0.806071
0.783641
0.778850
0.786008
0.801471
0.828786
0.863730
0.904150
0.954688
1.008367
1.070943
1.140467
1.219158
1.309727
1.412597
1.531310
1.667166
1.824589
2.004381
2.209955
2.445229
2.710532
3.007743
3.341023
3.703835
4.096058
4.529667
4.986001
5.477255
5.996765
6.551640
7.129567
7.741005
8.373065
9.030879
9.715754
10.427029
11.160254
11.926767
12.738442
13.590479
14.487986
15.409735
16.346174
17.273689
18.133753
18.846405
19.300554
19.380363
18.947199
17.893579
16.085569
13.495214
10.129665
6.044214
1.338577
-3.788649
-9.100681
-14.363300
-19.323433
-23.819302
-27.638561
-30.619137
-32.671127
-33.755024
-33.869106
-33.107452
-31.536335
-29.295418
-26.558987
-23.357494
-19.718826
-15.615883
-11.056114
-6.049225
-0.708305
4.798985
10.474121
15.672077
19.991604
23.150124
24.969238
25.390339
24.458519
22.074272
18.396797
13.504787
7.449383
0.489044
-6.939079
-14.295403
-20.966125
-26.431984
-30.396046
-32.862617
-34.150543
-34.774536
-35.160015
-35.466469
-35.616581
-35.392254
-34.581909
-33.242985
-31.703594
-30.609241
-30.691708
-32.434525
-35.687481
-39.920586
-44.378357
-48.480232
-51.883789
-54.773499
-57.624981
-61.132092
-65.984024
-72.560921
-81.226295
-91.876884
-103.444191
-113.483200
-118.683548
-116.033249
-104.216423
-84.560463
-60.097656
-34.848480
-12.030979
6.895878
22.365608
35.775349
48.674492
62.421432
75.085144
85.868050
94.500198
101.101395
105.731834
108.067116
107.433380
103.288124
95.633705
85.070595
73.195503
61.582153
51.405640
43.237595
37.056824
32.351578
28.296219
24.009033
18.699600
12.331223
5.220322
-2.047485
-8.949005
-15.370682
-21.776245
-29.104691
-38.339401
-50.095413
-63.978149
-78.857529
-93.025375
-104.532837
-111.523193
-112.585510
-106.971191
-94.754364
-76.967422
-55.363754
-32.233627
-9.911743
9.713745
25.619781
37.761353
46.886810
54.251801
61.064880
68.159943
75.725586
83.302429
90.114746
95.344177
98.460663
99.369690
98.463898
96.511353
94.484100
93.342865
93.819855
96.225220
100.398346
105.764008
111.527710
116.881073
121.227905
124.223267
125.750305
125.761627
124.196869
120.966766
116.097809
109.916687
103.150909
96.937149
92.563278
91.215530
93.579361
99.638077
108.579437
118.867340
128.598373
135.847977
139.106873
137.597855
131.401169
121.306198
108.565109
94.489922
80.180046
66.350899
53.352448
41.211365
29.667374
18.309048
6.714172
-5.280750
-17.388779
-28.849876
-38.663055
-46.041832
-50.758026
-53.338242
-54.837929
-56.463768
-59.129814
-63.214073
-68.628731
-75.097458
-82.373520
-90.361557
-98.836182
-107.214554
-114.346115
-118.684433
-118.724960
-113.587936
-103.360901
-89.199738
-72.811035
-55.897034
-39.569824
-24.197937
-9.587524
4.619781
18.539124
31.882538
43.966431
53.908997
60.948761
64.727844
65.579895
64.605225
63.570557
64.373322
68.368286
75.716980
85.165344
94.402161
101.088989
103.803406
102.580872
98.759888
93.964905
89.211792
84.338562
78.258118
69.768982
58.313965
44.397217
29.256653
14.432007
1.237610
-9.284912
-16.279053
-19.048950
-17.215027
-11.018494
-1.518799
9.629944
20.639587
30.175964
37.596436
42.786865
45.714111
46.033508
43.009949
35.909973
24.534363
9.764404
-6.548950
-22.086670
-34.927979
-44.443359
-51.388672
-57.590576
-64.894653
-74.370117
-85.923706
-98.549683
-111.053101
-122.632324
-133.106323
-142.671753
-151.516113
-159.539062
-166.365723
-171.505981
-174.546143
-175.217651
-173.275513
-168.526367
-160.836670
-150.242432
-137.032349
-121.749023
-105.199097
-88.375366
-72.469971
-58.691406
-48.174561
-41.655640
-39.293701
-40.517090
-44.166138
-48.748291
-52.806152
-55.297241
-55.790527
-54.581665
-52.452759
-50.414551
-49.185791
-48.935791
-49.268555
-49.425293
-48.770996
-47.183716
-45.223267
-43.892578
-44.167358
-46.600342
-50.990601
-56.526978
-61.984253
-66.157104
-68.000854
-66.740112
-61.800659
-52.753418
-39.380127
-21.712036
-0.073364
25.069702
53.134888
83.338135
114.259521
143.355469
166.729492
179.730957
178.376221
161.008911
129.502075
89.001221
46.387451
8.041748
-22.059326
-42.876953
-55.679321
-62.596802
-65.479614
-65.437744
-63.211060
-59.699341
-56.203125
-54.146118
-54.433228
-57.036011
-61.030396
-65.125244
-68.358276
-70.530273
-72.274048
-74.536133
-78.014160
-82.532837
-86.941772
-89.385986
-87.977783
-81.541626
-70.128296
-54.935425
-37.937134
-21.217041
-6.367676
5.761353
14.987671
21.533447
25.650024
27.555664
27.394531
25.523682
22.492432
19.065674
16.001465
13.782349
12.494263
11.839478
11.324951
10.515625
9.272705
7.714600
6.024780
4.325317
2.462402
0.135498
-2.997925
-7.105713
-12.162842
-18.046997
-24.650024
-31.865967
-39.414795
-46.636230
-52.388184
-55.291992
-54.168701
-48.505005
-38.709961
-25.992676
-11.999878
1.680542
13.796265
23.579346
30.621582
34.804321
36.220337
35.128174
32.029663
27.632568
22.773804
18.264282
14.699707
12.358643
11.113403
10.573364
10.243042
9.735962
8.882935
7.784668
6.619629
5.525757
4.450684
3.094604
1.058838
-2.097290
-6.648438
-12.634277
-19.827271
-27.696533
-35.513062
-42.312500
-47.114990
-48.978638
-47.255859
-41.719971
-32.727905
-21.156250
-8.230225
4.718506
16.486572
26.112305
32.947998
36.651123
37.227905
35.025391
30.783936
25.508301
20.256836
15.935669
13.016357
11.521484
11.046509
11.019409
10.878540
10.219971
8.853516
6.814087
4.251587
1.382812
-1.647705
-4.813232
-8.265259
-12.303955
-17.229614
-23.162598
-29.930420
-36.882446
-43.043823
-47.240601
-48.372437
-45.710571
-39.061218
-28.844299
-15.998596
-1.775085
12.450378
25.368896
35.895325
43.195557
46.687988
46.208191
42.039551
35.101013
26.780518
18.678284
12.129333
7.797241
5.529541
4.515625
3.739075
2.460327
0.446228
-2.097961
-4.806702
-7.381226
-9.801514
-12.193726
-14.823975
-17.945007
-21.863220
-26.882141
-33.205750
-40.809753
-49.167908
-57.192749
-63.347168
-65.929749
-63.628113
-55.893188
-43.177673
-26.842651
-8.838257
8.798645
24.341553
36.651367
45.184692
49.889587
51.043579
49.155334
44.961853
39.391296
33.481689
28.196899
24.173767
21.657776
20.355469
19.727173
19.085571
17.965088
16.197083
13.964417
11.592285
9.354187
7.256165
4.996521
2.021484
-2.269714
-8.369812
-16.403320
-26.036438
-36.386597
-46.069763
-53.402954
-56.759094
-54.996765
-47.814514
-35.838379
-20.501709
-3.615845
13.024231
27.890869
39.883240
48.262939
52.665375
53.145691
50.226410
44.864044
38.279480
31.689575
26.011292
21.729919
18.823822
16.942108
15.561035
14.203735
12.570129
10.552094
8.242523
5.807068
3.372375
0.978394
-1.498657
-4.297241
-7.759766
-12.284729
-18.233154
-25.711456
-34.368866
-43.217041
-50.729919
-55.183472
-55.224121
-50.307037
-40.908905
-28.338501
-14.286560
-0.360199
12.184998
22.511139
30.064758
34.551270
35.871063
34.309540
30.497635
25.364700
19.908813
14.977020
11.125259
8.546112
7.170120
6.705170
6.769440
6.981354
7.041183
6.841095
6.432205
6.013153
5.688980
5.369385
4.654266
2.977493
-0.230133
-5.285919
-12.148285
-20.425858
-29.331413
-37.772530
-44.366180
-47.612823
-46.262444
-39.666641
-28.127396
-12.882812
4.057907
20.439974
34.162949
43.659889
47.963684
46.767048
40.445343
30.054258
17.260147
4.047398
-7.752918
-16.942310
-23.267105
-27.310577
-30.138412
-32.847694
-36.251221
-40.722534
-46.303711
-52.788635
-59.879105
-67.240677
-74.656647
-82.257767
-90.620789
-100.731201
-113.587234
-129.738876
-148.955505
-170.113068
-191.444275
-211.008179
-227.134766
-238.736267
-245.392578
-247.247833
-244.884338
-239.169983
-231.130798
-221.804993
-212.193970
-203.050110
-194.831726
-187.609741
-181.171448
-175.125916
-169.143250
-163.112549
-157.264404
-151.971558
-147.445557
-143.354675
-138.751587
-132.208740
-122.335938
-108.220947
-89.807373
-67.806763
-43.308533
-17.214355
10.316406
39.888550
72.556274
109.207886
149.928833
193.686646
238.745972
283.166992
325.637085
365.886841
404.615845
443.189575
483.203857
526.324097
573.850220
626.007935
680.918823
733.923584
778.004150
805.554199
810.991455
792.967773
754.905518
703.597168
646.516968
589.381470
535.084106
484.278564
436.863647
393.155273
354.108154
320.538696
292.260010
267.801270
244.866943
221.402344
196.466797
170.462769
144.830078
121.054565
99.794556
80.381226
61.091431
40.155273
16.847595
-7.663391
-30.398132
-47.466736
-55.558105
-53.257690
-41.720215
-24.391296
-6.004883
8.844421
17.048767
17.872742
12.959045
5.549805
-0.744385
-3.402527
-1.798859
2.624969
7.048676
8.466461
4.912674
-3.787262
-15.964706
-28.840790
-39.638443
-46.621620
-49.786221
-50.740498
-52.079697
-56.347176
-65.098618
-78.409378
-94.869354
-112.178314
-127.812439
-139.611328
-146.040955
-146.419037
-140.805267
-130.090546
-116.203552
-101.999084
-90.579407
-83.944885
-81.856262
-81.495789
-78.481445
-68.949341
-51.565369
-28.488953
-4.536621
14.776062
25.461426
26.071533
17.572144
2.139526
-18.010376
-41.190552
-66.220581
-92.170288
-118.322754
-144.326294
-170.258667
-196.323242
-222.242798
-246.988525
-268.884644
-286.129517
-297.258545
-301.740845
-300.041626
-293.528198
-284.300781
-274.824097
-267.518066
-264.140747
-265.222412
-269.688599
-275.041626
-278.076782
-275.893555
-266.864380
-251.057129
-230.133057
-206.546753
-182.870361
-161.108643
-142.528076
-127.638550
-116.372192
-108.181763
-102.101440
-96.845947
-91.039917
-83.527344
-73.722778
-61.831543
-48.738403
-35.698120
-23.852417
-13.895752
-5.990723
0.105713
4.869873
8.700928
11.887817
14.471069
16.324585
17.122192
16.449219
14.008179
9.735962
4.139038
-1.698120
-6.175903
-7.566528
-4.515991
3.529541
16.082642
31.778076
48.753052
65.110107
79.283081
90.129883
96.838257
98.898071
96.115112
88.680176
77.372070
63.394897
48.264771
33.382080
19.816284
8.178589
-1.393677
-9.099731
-15.431519
-20.979736
-26.374390
-32.103149
-38.369751
-45.071533
-51.923828
-58.668335
-65.294556
-72.131226
-79.713989
-88.568848
-98.770386
-109.809570
-120.507812
-129.197998
-134.213013
-134.274048
-129.008789
-119.012451
-105.753784
-91.163818
-77.083740
-64.973389
-55.810547
-50.125732
-48.196045
-50.155762
-55.838135
-64.735962
-75.862671
-87.890015
-99.383301
-109.203125
-116.758789
-121.991455
-125.170166
-126.515503
-125.975952
-123.302612
-118.274902
-110.891846
-101.415527
-90.149658
-77.186157
-62.379272
-45.694946
-27.644287
-9.637207
6.290649
18.221313
25.291382
28.351807
29.710938
32.359253
38.740723
49.951172
65.494507
83.739746
102.594604
120.225952
135.344727
147.192139
155.321350
159.344116
158.999512
154.237976
145.556213
134.058167
121.381897
109.333618
99.334534
92.105408
87.443237
84.463623
82.036621
79.300476
75.933655
72.101196
68.196045
64.448914
60.726440
56.502380
51.159058
44.259155
35.748779
26.001465
15.541809
4.914001
-5.517090
-15.435364
-24.406494
-31.679993
-36.174988
-36.808289
-32.857422
-24.389038
-12.246460
2.111084
17.102478
31.401245
44.110901
54.772644
63.098511
68.908142
72.018555
72.422607
70.339355
66.327454
61.190430
55.846313
51.142517
47.685669
45.786194
45.377991
46.066956
47.249268
48.254639
48.498596
47.548340
45.240540
41.613037
36.943481
31.641235
26.165710
20.824463
15.690491
10.466736
4.604370
-2.470459
-11.072571
-20.948669
-31.115479
-40.058685
-46.016876
-47.582886
-44.006500
-35.557678
-23.325531
-8.940796
5.925171
19.882874
32.008789
41.727295
48.637970
52.471710
53.127502
50.845947
46.270660
40.409821
34.388733
29.169312
25.320068
22.979034
21.936707
21.773407
22.086487
22.518982
22.866577
22.983582
22.720154
21.907196
20.330261
17.838562
14.455322
10.454651
6.237610
2.120636
-1.881439
-6.146454
-11.207642
-17.455872
-24.789246
-32.476624
-39.292755
-43.870087
-45.046936
-42.226807
-35.457031
-25.382568
-13.114380
0.019531
12.693359
23.765076
32.403076
38.124695
40.839050
40.726929
38.268127
34.162109
29.233826
24.280579
19.923462
16.487854
14.018066
12.372559
11.357727
10.810608
10.583069
10.466980
10.200684
9.448486
7.959351
5.642944
2.698364
-0.553711
-3.797302
-6.919250
-10.048828
-13.528076
-17.770996
-23.078552
-29.483704
-36.665466
-43.841980
-49.968079
-53.837219
-54.444885
-51.173828
-44.009216
-33.482971
-20.628540
-6.704590
6.934753
19.073181
28.700195
35.218018
38.449158
38.647522
36.443542
32.634888
28.024353
23.325806
19.075500
15.697083
13.438293
12.405945
12.466431
13.258545
14.202209
14.605652
13.886719
11.734802
8.192993
3.677612
-1.273804
-6.195679
-10.949829
-15.697693
-20.825623
-26.673279
-33.391418
-40.840454
-48.642761
-56.210754
-62.756653
-67.402100
-69.227783
-67.576416
-62.202515
-53.433044
-42.095581
-29.262756
-16.108948
-3.622009
7.325256
16.066833
22.066101
25.119873
25.360229
23.334290
19.945557
16.176331
12.919739
10.755615
9.850891
9.963684
10.564575
10.994141
10.569946
8.901611
5.832458
1.603638
-3.309570
-8.300537
-12.936035
-17.103699
-21.113281
-25.673706
-31.617859
-39.626526
-49.978210
-62.407959
-76.134827
-89.992004
-102.682007
-112.895813
-119.636475
-122.269043
-120.725891
-115.530457
-107.702942
-98.574524
-89.518494
-81.648438
-75.739471
-72.235413
-71.413605
-73.426056
-78.269989
-85.636353
-94.836731
-104.840881
-114.546997
-123.119659
-130.268585
-136.239471
-141.530853
-146.535034
-151.199493
-154.997253
-157.129761
-156.867462
-153.826050
-148.008759
-139.614349
-128.773804
-115.374817
-99.082504
-79.602615
-56.930756
-31.588745
-4.572144
22.984283
50.129669
76.430939
102.019135
127.492523
153.698196
181.704071
212.758545
248.181671
288.906769
334.735687
383.747498
432.232483
475.434967
508.810303
529.266235
535.863647
529.700500
513.190796
489.144806
460.213898
428.681030
396.544189
365.475586
336.589691
310.240814
285.935791
262.537628
238.814224
213.855652
187.315948
159.309662
130.220810
100.372009
69.864090
38.607422
6.417755
-26.780319
-60.771927
-95.016022
-128.614151
-160.484146
-189.441681
-214.408966
-234.516602
-249.265198
-258.541351
-262.653900
-262.342194
-258.543549
-252.226868
-244.258026
-235.277649
-225.768463
-216.243469
-207.220856
-199.157379
-192.205200
-185.938354
-179.342926
-171.087402
-159.986572
-145.481079
-127.775635
-107.611816
-85.961853
-63.609131
-41.123779
-18.956726
2.314819
21.980774
39.356262
54.002991
65.845398
75.095459
81.935913
86.323547
87.880249
86.071289
80.452454
70.878479
57.782593
42.271606
26.029785
11.093201
-0.621094
-7.821472
-10.239502
-8.640991
-4.523438
0.390259
4.636169
7.186584
7.498169
5.371521
0.881409
-5.650391
-13.649658
-22.323547
-30.830017
-38.332642
-44.229919
-48.190430
-50.222168
-50.691162
-50.187073
-49.306763
-48.549866
-48.140747
-48.123169
-48.484375
-49.266602
-50.560303
-52.414917
-54.701294
-57.134033
-59.424805
-61.522034
-63.641785
-66.223938
-69.677368
-74.015015
-78.767883
-82.925720
-85.165283
-84.209473
-79.207153
-69.983215
-57.185425
-42.100769
-26.282288
-11.205200
2.092834
13.016907
21.351196
27.051025
30.200378
30.934937
29.643738
26.953552
23.658325
20.515564
18.078003
16.546448
15.836792
15.637146
15.581238
15.381287
14.848755
13.932800
12.736023
11.398682
10.016724
8.572998
6.919861
4.841980
2.069580
-1.609680
-6.398560
-12.474731
-19.858765
-28.352356
-37.282898
-45.579285
-51.836670
-54.772827
-53.526062
-47.978760
-38.742249
-26.952209
-13.989685
-1.175781
10.399353
19.969604
27.025879
31.314941
32.759155
31.504883
28.035156
23.141907
17.909424
13.386230
10.350952
9.060730
9.254272
10.399170
11.864746
13.238342
14.231873
14.720703
14.602905
13.844727
12.525146
10.841431
9.021301
7.150085
5.110229
2.516724
-1.084839
-6.071716
-12.526428
-20.065186
-27.808472
-34.437317
-38.535095
-38.929260
-35.122314
-27.424561
-16.836853
-4.726685
7.493835
18.614502
27.663818
33.900818
36.875183
36.493347
33.265442
28.119385
22.293091
16.895935
12.669739
9.829041
8.203552
7.400452
6.930908
6.411316
5.596985
4.395020
2.946136
1.520325
0.394928
-0.311798
-0.744446
-1.296692
-2.483185
-4.807007
-8.627930
-14.018097
-20.678833
-27.922607
-34.680145
-39.650177
-41.617981
-39.784424
-33.992493
-24.835388
-13.420197
-1.123535
10.722504
21.030029
29.120209
34.637299
37.532898
37.968994
36.305298
32.971130
28.545288
23.657471
18.975983
15.080322
12.301819
10.653931
9.811096
9.248627
8.463623
7.182037
5.400269
3.323700
1.209900
-0.821136
-2.840454
-5.116577
-8.060944
-12.092468
-17.563141
-24.625366
-33.016083
-42.007385
-50.397400
-56.661316
-59.305267
-57.316437
-50.465820
-39.454010
-25.748657
-11.201538
2.475891
14.049194
22.880859
28.859680
32.152039
33.044250
31.904785
29.163635
25.442230
21.379791
17.548828
14.289734
11.726929
9.792694
8.363007
7.296265
6.491394
5.767639
4.998352
4.051025
2.894714
1.507080
-0.225250
-2.579315
-5.936005
-10.693604
-17.015411
-24.795166
-33.550415
-42.520966
-50.658539
-56.756775
-59.606857
-58.293701
-52.497055
-42.667953
-29.927017
-15.753922
-1.586472
11.477829
22.718613
31.690475
38.176743
42.019318
43.291290
42.281403
39.544037
35.787415
31.805939
28.293228
25.698929
24.078461
23.146301
22.388809
21.347916
19.812332
17.954865
16.155457
14.673264
13.464188
12.162888
10.265320
7.418777
3.539162
-1.197777
-6.628403
-12.734337
-19.673851
-27.604408
-36.307114
-45.017769
-52.407509
-56.898697
-57.150703
-52.463776
-43.137207
-30.295578
-15.596230
-0.722839
12.944550
24.512512
33.553211
39.901283
43.566628
44.754833
43.865566
41.568859
38.631470
35.816212
33.627151
32.300804
31.732075
31.636717
31.694855
31.689739
31.537632
31.231602
30.789921
30.111427
29.010317
27.243879
24.622911
21.113415
16.823288
11.994054
6.821240
1.406229
-4.328821
-10.580892
-17.567411
-25.351688
-33.743443
-42.103069
-49.404095
-54.297714
-55.458141
-51.979179
-43.792103
-31.788147
-17.636185
-3.248096
9.768074
20.468235
28.608524
34.415379
38.187576
40.132950
40.388500
39.175694
36.921902
34.239166
31.758343
29.930267
28.943222
28.698830
28.939140
29.375164
29.715195
29.847145
29.761497
29.523659
29.195107
28.680145
27.682175
25.846451
22.957886
19.126381
14.814583
10.655655
7.129066
4.264442
1.591713
-1.679832
-6.279190
-12.549202
-20.351730
-29.036316
-37.697876
-45.336906
-50.962090
-53.641716
-52.704208
-47.822487
-39.199036
-27.666328
-14.531525
-1.369507
10.387383
19.790001
26.453575
30.535553
32.501556
32.852730
32.010406
30.358467
28.255318
26.147392
24.470673
23.565308
23.484123
24.016640
24.794594
25.447685
25.805000
25.915108
25.947769
26.038826
26.133728
25.993141
25.253883
23.552544
20.673050
16.715553
12.076668
7.350571
3.092751
-0.393677
-3.231125
-5.895561
-9.077652
-13.363510
-19.013504
-25.809692
-33.007217
-39.450920
-43.839157
-44.980865
-42.243073
-35.710205
-26.257866
-15.231995
-4.077820
6.091206
14.711311
21.630280
26.857712
30.359680
31.975262
31.606941
29.377995
25.805344
21.659595
17.732773
14.560596
12.281757
10.723293
9.598087
8.727177
8.154930
8.061016
8.559456
9.546806
10.612293
11.167675
10.683311
8.894810
5.898226
2.066130
-2.096352
-6.179487
-9.944342
-13.359940
-16.557245
-19.779913
-23.335484
-27.459476
-32.124378
-36.895519
-40.953362
-43.196583
-42.658401
-38.853649
-32.021790
-23.021852
-13.050392
-3.247909
5.534983
12.831158
18.452408
22.307701
24.406256
24.836214
23.843111
21.885771
19.556219
17.517282
16.212254
15.811161
16.133442
16.761646
17.275097
17.445198
17.307400
16.993456
16.554886
15.828128
14.503762
12.289001
9.166443
5.418623
1.490938
-2.219616
-5.542839
-8.605797
-11.734846
-15.313772
-19.694263
-25.070995
-31.436497
-38.428574
-45.270313
-50.811859
-53.793083
-53.200806
-48.613762
-40.342030
-29.379917
-17.075703
-4.874878
6.031303
14.882580
21.404221
25.716759
28.151707
29.075706
28.786819
27.536880
25.557465
23.154488
20.605873
18.133327
15.820904
13.665310
11.688877
10.001453
8.806004
8.222855
8.122921
8.118057
7.687729
6.429436
4.272339
1.431545
-1.717541
-4.851345
-7.842701
-10.703663
-13.617699
-16.789570
-20.515171
-25.096111
-30.741295
-37.343998
-44.303116
-50.565063
-54.779961
-55.712116
-52.658936
-45.669769
-35.569702
-23.654537
-11.354511
0.112652
9.878658
17.452888
22.664825
25.512363
26.190502
25.082859
22.688049
19.651485
16.583427
14.001953
12.184727
11.210545
10.962395
11.250839
11.821819
12.467834
12.975494
13.174557
12.921127
12.107346
10.636028
8.446358
5.518265
1.917709
-2.225761
-6.709942
-11.269279
-15.691162
-19.941883
-24.188736
-28.789482
-34.074738
-40.134815
-46.574390
-52.437824
-56.381023
-57.082176
-53.633469
-45.974300
-34.916317
-21.972225
-8.854176
2.928894
12.386192
19.105507
23.101452
24.625195
24.091003
21.986412
18.962698
15.713873
12.903063
10.954391
9.983120
9.854473
10.265270
10.931778
11.591198
12.101536
12.364979
12.325006
11.982137
11.328533
10.245615
8.485136
5.771119
1.903478
-3.002705
-8.545166
-14.160492
-19.507637
-24.621134
-29.930359
-35.928886
-42.666359
-49.471512
-54.952812
-57.415882
-55.540257
-48.882462
-38.043465
-24.492693
-10.019207
3.793808
15.893345
25.766451
33.179039
37.968719
39.954529
39.163685
36.111004
31.863239
27.833775
25.230774
24.627182
25.779350
27.791737
29.639408
30.557186
30.301250
29.070450
27.292831
25.407127
23.655285
22.116119
20.669048
19.027546
16.928005
14.144978
10.627998
6.455250
1.665852
-3.720711
-9.689281
-15.987789
-21.917625
-26.363892
-28.027748
-25.976791
-20.030434
-10.966812
-0.248390
10.452553
19.733566
26.809662
31.466812
33.890640
34.399750
33.319496
30.990990
27.791161
24.242935
20.952103
18.449936
17.121864
16.973507
17.708271
18.799301
19.603172
19.597683
18.432255
16.085640
12.817307
9.102692
5.435192
2.153957
-0.750767
-3.612858
-6.932232
-11.115398
-16.350021
-22.535110
-29.326286
-36.187492
-42.406029
-47.036190
-48.995140
-47.266659
-41.330673
-31.484829
-18.902618
-5.350731
7.367352
17.880192
25.565918
30.485828
33.102055
33.982330
33.651405
32.507561
30.871944
29.088337
27.550644
26.750885
27.168837
29.091051
32.337296
36.252167
39.741676
41.705845
41.387451
38.691269
34.064178
28.196369
21.624792
14.561342
6.934958
-1.341545
-10.192280
-19.357607
-28.541433
-37.545616
-46.328163
-54.788319
-62.541718
-68.825851
-72.640358
-72.946716
-69.093384
-61.066025
-49.579479
-35.944649
-21.778091
-8.590395
2.481596
10.814758
16.275829
19.062050
19.542044
18.198982
15.638863
12.571991
9.752357
7.829212
7.146692
7.666862
8.981623
10.545849
11.815727
12.401409
12.096575
10.932032
9.088976
6.904957
4.700342
2.738499
1.035501
-0.581381
-2.432892
-4.789665
-7.817215
-11.551556
-16.043390
-21.326725
-27.382280
-33.946480
-40.258957
-45.135201
-47.262535
-45.582619
-39.783871
-30.428989
-18.853348
-6.727940
4.370007
13.363699
19.784904
23.768518
25.780378
26.411079
26.141962
25.268024
23.908264
22.118574
20.036118
17.910938
16.095186
14.880781
14.382263
14.517441
14.970058
15.367285
15.345245
14.718712
13.397058
11.439798
8.933712
5.937038
2.500481
-1.305677
-5.371416
-9.531216
-13.625492
-17.560722
-21.432110
-25.477287
-30.015127
-35.171394
-40.662994
-45.638901
-48.840813
-48.974277
-45.233871
-37.661026
-27.217196
-15.474997
-4.139971
5.493073
12.739763
17.536776
20.131117
20.883549
20.118343
18.163204
15.454006
12.578894
10.164558
8.728189
8.420832
9.003643
9.966003
10.777657
11.085379
10.912258
10.533323
10.320295
10.473618
10.849026
11.037313
10.508799
8.896305
6.194744
2.712795
-1.044203
-4.714188
-8.153599
-11.500309
-14.967295
-18.774456
-23.024559
-27.704260
-32.597805
-37.258083
-40.865597
-42.372105
-40.781982
-35.590508
-27.148525
-16.683092
-5.818110
3.967623
11.850460
17.759499
22.089672
25.218803
27.252193
28.029766
27.453461
25.721785
23.403845
21.242395
19.824266
19.339697
19.537733
19.935640
20.110815
19.867182
19.323399
18.740679
18.293127
17.913803
17.258539
15.848132
13.401815
9.967892
5.986230
2.055214
-1.362983
-4.202024
-6.750104
-9.579638
-13.150227
-17.634136
-22.753643
-27.835983
-31.982290
-34.234322
-33.838886
-30.460485
-24.281395
-16.037424
-6.748796
2.510474
10.901658
17.910324
23.284086
26.855314
28.572067
28.477489
26.856720
24.244564
21.335175
18.721325
16.743919
15.387531
14.443926
13.699902
13.111394
12.785447
12.882940
13.448070
14.291358
14.984600
15.008101
13.850336
11.235283
7.198192
2.096712
-3.547046
-9.237114
-14.651760
-19.719620
-24.611137
-29.570610
-34.721886
-39.992378
-44.986488
-48.973667
-51.081837
-50.446301
-46.568207
-39.487926
-29.809175
-18.636868
-7.180900
3.454939
12.448483
19.271729
23.644697
25.548841
25.224407
23.182657
20.181915
17.001804
14.248769
12.309488
11.333323
11.332970
12.234353
13.914203
16.139280
18.532078
20.625534
21.937443
22.109917
20.870913
18.192741
14.234149
9.352192
4.079910
-1.059846
-5.663080
-9.652771
-13.248133
-16.878708
-20.953773
-25.711849
-31.144571
-36.942745
-42.527878
-47.087860
-49.670898
-49.379410
-45.618195
-38.345535
-28.116667
-16.018364
-3.402756
8.423792
18.400267
25.869404
30.577135
32.703239
32.727821
31.340557
29.242626
27.029974
25.124123
23.743782
22.957808
22.723331
22.873775
23.131351
23.204948
22.889620
22.160568
21.166527
20.093452
19.076761
18.071854
16.859257
15.195827
12.878033
9.753476
5.770162
0.956666
-4.588905
-10.722672
-17.258892
-24.063570
-31.049057
-38.065754
-44.777702
-50.517300
-54.336380
-55.258350
-52.634605
-46.404842
-37.234154
-26.256683
-14.767985
-3.877379
5.639045
13.408983
19.309940
23.373087
25.727819
26.524534
25.989239
24.468630
22.434820
20.455322
19.032217
18.472403
18.744429
19.525650
20.324657
20.711689
20.475677
19.603260
18.221722
16.492107
14.522631
12.398791
10.214235
8.044592
5.917841
3.744042
1.321082
-1.558455
-5.084968
-9.415955
-14.674559
-20.943779
-28.162743
-35.895649
-43.222683
-48.787281
-51.162201
-49.264122
-42.883564
-32.830303
-20.686180
-8.363715
2.524690
11.103414
17.247221
21.395267
24.096525
25.728748
26.403246
26.162189
25.133585
23.715179
22.465960
21.833408
21.959032
22.610220
23.312695
23.567242
23.087616
21.904381
20.263647
18.515509
16.921329
15.556078
14.282143
12.786008
10.736201
7.943691
4.498713
0.712736
-2.956970
-6.187724
-9.012892
-11.896317
-15.591516
-20.760319
-27.565252
-35.393036
-42.900150
-48.380184
-50.321804
-47.982464
-41.601799
-32.333004
-21.784294
-11.448304
-2.281157
5.338356
11.398746
15.872589
18.503874
18.956587
17.097303
13.381557
8.780970
4.514103
1.461637
-0.217136
-1.103024
-2.185846
-4.193090
-7.227744
-10.705075
-13.728936
-15.601203
-16.264469
-16.332237
-16.804291
-18.540693
-21.825190
-26.254053
-30.938133
-34.900955
-37.564617
-38.934143
-39.451019
-39.689846
-40.075714
-40.743816
-41.644691
-42.665184
-43.717300
-44.647522
-45.049530
-44.208183
-41.218204
-35.353714
-26.350082
-14.681587
-1.469753
11.857990
23.966473
33.896763
41.245728
46.028290
48.590157
49.361584
48.810364
47.392677
45.596226
43.836082
42.467789
41.648716
41.280457
41.082722
40.733528
40.014572
38.853386
37.330109
35.537102
33.484718
31.115723
28.357796
25.204765
21.707840
17.973404
14.046959
9.953423
5.701347
1.353767
-2.994179
-7.281502
-11.508583
-15.738205
-19.924133
-23.729683
-26.534981
-27.509735
-26.022652
-21.932190
-15.774506
-8.598885
-1.567116
4.528679
9.510986
13.783997
17.955582
22.403145
26.972458
31.031242
33.751198
34.567856
33.424164
30.815857
27.505989
24.143303
20.949234
17.787888
14.315033
10.451180
6.516296
3.245003
1.443787
1.572121
3.453514
6.270760
8.883926
10.256264
9.788345
7.450333
3.558250
-1.473831
-7.331749
-13.880463
-21.015327
-28.395996
-35.394775
-41.062508
-44.400696
-44.642242
-41.534340
-35.409805
-27.133011
-17.788303
-8.454418
0.044727
7.215145
12.899429
17.077393
19.807529
21.157967
21.202305
20.128059
18.289036
16.105972
14.008526
12.262722
10.898525
9.785275
8.729321
7.598011
6.390923
5.156719
3.910954
2.636753
1.294758
-0.057686
-1.290565
-2.192070
-2.619862
-2.644081
-2.543659
-2.747833
-3.705830
-5.825863
-9.426262
-14.632072
-21.229191
-28.503616
-35.206512
-39.779053
-40.815720
-37.567101
-30.235916
-19.907021
-8.124451
3.579803
14.055828
22.663300
29.111513
33.324875
35.323914
35.251091
33.522976
30.801161
27.950615
25.704273
24.463810
24.120291
24.084963
23.617760
22.184267
19.765415
16.862347
14.240700
12.545807
11.944927
12.111545
12.380029
12.124370
11.070849
9.319492
7.216290
5.060888
2.854613
0.293626
-3.111853
-7.640123
-13.078401
-18.514185
-22.561802
-23.745998
-21.098904
-14.550608
-4.950373
6.255295
17.602514
28.088774
37.272438
45.080868
51.429623
56.015011
58.363865
58.196323
55.696812
51.545528
46.668930
41.809242
37.212582
32.619911
27.539894
21.638824
14.993362
8.069519
1.442223
-4.491959
-9.785057
-14.833168
-20.121796
-25.866959
-31.897987
-37.689934
-42.623047
-46.350914
-48.993698
-51.099571
-53.405060
-56.478310
-60.459457
-64.954689
-69.139618
-71.934418
-72.346405
-69.750610
-64.079361
-55.809982
-45.731506
-34.661057
-23.287048
-12.127823
-1.712830
7.304062
14.151276
18.231400
19.459595
18.438812
16.282654
14.228149
13.150162
13.306610
14.393082
15.882446
17.345917
18.606537
19.708328
20.756592
21.840652
23.003235
24.148300
25.219162
26.078415
26.607239
26.596069
25.744873
23.682892
20.033173
14.490784
6.911743
-2.626556
-13.748642
-25.749420
-37.584671
-47.930481
-55.402008
-58.830170
-57.587631
-51.914612
-42.890076
-32.171097
-21.531754
-12.370346
-5.450500
-0.913025
1.491867
2.133102
1.414200
-0.261490
-2.445602
-4.664124
-6.449570
-7.509567
-7.679977
-6.962769
-5.412018
-3.192062
-0.580002
1.992676
4.007446
4.995758
4.720337
3.210083
0.674271
-2.662125
-6.689651
-11.374252
-16.698624
-22.584457
-28.862091
-35.408051
-42.127945
-48.893707
-55.348145
-60.752365
-64.037186
-64.076935
-60.106857
-52.090729
-40.804916
-27.623154
-14.107529
-1.577271
9.131851
17.660004
23.973434
28.159515
30.297440
30.491333
28.981644
26.221848
22.943832
20.003494
18.228989
18.116028
19.705017
22.550308
25.889053
28.897400
31.024277
32.132080
32.511841
32.729233
33.341553
34.644150
36.570374
38.724335
40.548203
41.484192
41.127701
39.326645
36.244644
32.392319
28.685532
26.296234
26.430359
29.975327
37.221329
47.732376
60.503952
74.241455
87.780243
100.305023
111.323410
120.501053
127.431564
131.479019
131.813507
127.701019
118.934021
106.134384
90.805389
74.937836
60.384277
48.171051
38.169128
29.355316
20.442749
10.600769
-0.094452
-10.841064
-20.658173
-28.968903
-35.881561
-42.099335
-48.433563
-55.400635
-63.061523
-71.111877
-79.215302
-87.254486
-95.384125
-103.865356
-112.740631
-121.518280
-128.974976
-133.422852
-133.028137
-126.493561
-113.475769
-94.726654
-71.812561
-46.647217
-21.150726
2.756653
23.169159
38.177124
46.187042
46.324310
38.860382
25.204742
7.509949
-11.918701
-31.120789
-48.741150
-63.861542
-75.933380
-84.611664
-89.819305
-91.923309
-91.747101
-90.400116
-88.973663
-88.274780
-88.658234
-89.974579
-91.777161
-93.517761
-94.909119
-95.970276
-97.114502
-98.868652
-101.659698
-105.526093
-110.002350
-114.164642
-116.812164
-116.700531
-112.885559
-104.910004
-93.056335
-78.290588
-62.023895
-45.769623
-30.799774
-17.895966
-7.405426
0.573273
6.045288
9.033325
9.685303
8.456360
6.095306
3.580963
1.793243
1.357330
2.462158
4.890869
8.207932
11.882812
15.413391
18.402115
20.555054
21.744812
21.973221
21.376343
20.153564
18.510895
16.668289
14.748520
12.820869
10.835281
8.600639
5.821167
2.174484
-2.441780
-7.764320
-12.987808
-16.902161
-18.128567
-15.609552
-8.901843
1.590574
14.736218
28.950817
42.625397
54.381271
63.284046
68.902954
71.272125
70.808655
68.248070
64.472733
60.382599
56.721985
53.987083
52.359177
51.730492
51.801140
52.111328
52.260071
51.933487
50.923752
49.227463
46.911484
44.162994
41.171555
38.138580
35.248596
32.599518
30.201508
27.947144
25.628952
22.985718
19.755753
15.733994
10.843292
5.168564
-0.918839
-6.761719
-11.457840
-14.027283
-13.706573
-10.175323
-3.769379
4.605621
13.678528
22.237823
29.378510
34.705627
38.198486
39.992126
40.220490
38.954376
36.301483
32.532318
28.138245
23.749969
19.919861
16.963928
14.878632
13.445038
12.335114
11.270538
10.046997
8.536072
6.671509
4.460358
2.006378
-0.528931
-2.989471
-5.294922
-7.464050
-9.581573
-11.781006
-14.178925
-16.964478
-20.340515
-24.532623
-29.555389
-35.072754
-40.253845
-43.927582
-44.945801
-42.669250
-37.256439
-29.675079
-21.413849
-13.912140
-8.155426
-4.494324
-2.661713
-2.087402
-2.130951
-2.317017
-2.298645
-1.850708
-0.751251
1.271271
4.428284
8.743652
13.957733
19.508240
24.707092
28.918030
31.847900
33.610901
34.695892
35.627594
36.733337
37.910492
38.648407
38.255707
36.109009
31.871552
25.562134
17.556366
8.497742
-0.782654
-9.300232
-16.058502
-20.133331
-20.891876
-18.082947
-11.956268
-3.163208
7.297852
18.325256
28.829590
37.883942
44.899109
49.735962
52.657837
54.239838
55.111694
55.761810
56.436707
57.238525
58.224152
59.524414
61.304138
63.594757
66.152313
68.413818
69.637421
69.224396
66.949066
63.003998
57.787384
51.683197
44.754761
36.825775
27.614105
17.073761
5.485809
-6.555908
-18.474487
-29.879456
-40.683807
-50.902527
-60.319214
-68.301514
-73.816589
-75.770691
-73.486511
-67.010681
-57.224335
-45.562622
-33.603333
-22.637207
-13.426117
-6.227417
-0.947632
2.664093
4.809052
5.605499
5.110321
3.400177
0.713074
-2.507751
-5.636444
-7.967316
-8.944366
-8.318726
-6.257233
-3.285583
-0.140656
2.548584
4.432373
5.489044
5.917999
5.904938
5.438385
4.260376
2.000977
-1.621124
-6.698029
-13.045807
-20.277252
-27.826385
-34.989075
-40.926270
-44.744324
-45.585999
-42.897339
-36.573212
-27.119141
-15.543335
-3.168518
8.663116
18.872131
26.821167
32.323517
35.617371
37.144104
37.434509
36.909271
35.889465
34.572662
33.028778
31.343018
29.571655
27.746857
25.896179
23.995514
21.973938
19.698883
17.037079
13.928284
10.482056
6.953522
3.664276
0.856659
-1.433990
-3.444122
-5.549255
-8.088806
-11.249054
-15.079193
-19.502777
-24.421753
-29.600250
-34.545319
-38.392914
-40.060303
-38.486481
-33.139557
-24.256012
-12.912781
-0.686340
10.863251
20.564636
27.867035
32.772369
35.583252
36.632629
36.164978
34.434204
31.763428
28.656921
25.740784
23.577454
22.452515
22.240723
22.466949
22.539673
21.993317
20.638031
18.594727
16.158722
13.591766
11.103973
8.781586
6.638123
4.555969
2.351471
-0.255920
-3.479095
-7.346771
-11.609741
-15.896820
-19.928253
-23.743423
-27.682678
-32.107391
-37.052124
-41.934082
-45.580948
-46.711044
-44.385666
-38.491333
-29.739182
-19.400269
-8.858429
0.691284
8.462494
13.978088
17.060211
17.713028
16.179245
12.961060
8.817490
4.590118
1.086090
-1.131897
-1.822510
-1.127090
0.505219
2.460724
4.135025
5.066803
5.125107
4.470795
3.453049
2.418533
1.514313
0.626129
-0.565918
-2.418732
-5.083725
-8.453018
-12.157272
-15.737747
-18.930496
-21.803253
-24.723450
-28.103058
-32.014328
-35.920807
-38.684357
-39.004044
-35.916992
-29.317963
-20.055862
-9.608521
0.436646
8.929276
15.393738
19.894180
22.726624
24.139282
24.263565
23.197159
21.211594
18.802704
16.589172
15.089279
14.537888
14.787766
15.440506
16.048592
16.297081
16.156647
15.823952
15.598915
15.728142
16.218895
16.822159
17.074837
16.401947
14.405319
11.043388
6.667244
1.878426
-2.802979
-7.248566
-11.788986
-16.922417
-22.913994
-29.309837
-34.953690
-38.316269
-38.148056
-34.040718
-26.625000
-17.310997
-7.728859
0.831429
7.705032
12.850914
16.485382
18.802803
19.799652
19.320000
17.292145
13.975742
10.017574
6.324589
3.707909
2.620354
2.963299
4.237759
5.754040
7.000614
7.720387
7.934990
7.736202
7.179024
6.183846
4.613213
2.345112
-0.605995
-4.108940
-7.923702
-11.830135
-15.715534
-19.665873
-23.961786
-28.932507
-34.663425
-40.730400
-46.088440
-49.284164
-48.920757
-44.283417
-35.584076
-24.000418
-11.238422
1.018961
11.609115
19.979321
26.098270
30.125330
32.190628
32.342724
30.669319
27.451962
23.280046
18.948902
15.229160
12.667752
11.385728
11.094945
11.263920
11.346632
10.997545
10.178581
9.089663
7.987572
7.029972
6.111492
4.919252
3.083855
0.397953
-3.033205
-6.835953
-10.628002
-14.300999
-18.115845
-22.573135
-28.009769
-34.174587
-40.025352
-43.937927
-44.277000
-40.095291
-31.603714
-20.158726
-7.848030
3.302185
11.953541
17.701900
20.925400
22.325081
22.486603
21.616001
19.653625
16.542477
12.517181
8.192245
4.379677
1.760788
0.584450
0.610100
1.264046
1.928131
2.152122
1.811768
1.011337
-0.051979
-1.235970
-2.573669
-4.200310
-6.355927
-9.196594
-12.676918
-16.517624
-20.316772
-23.748535
-26.805099
-29.881363
-33.590286
-38.296463
-43.675751
-48.502769
-51.011688
-49.545242
-43.357841
-33.073265
-20.497559
-7.961617
2.536530
9.972771
14.369316
16.434158
16.990387
16.568863
15.282455
13.050476
9.896835
6.197769
2.620796
-0.059273
-1.296509
-0.973228
0.582619
2.739960
4.902954
6.658615
7.869743
8.576599
8.852356
8.644577
7.846657
6.346443
4.138573
1.383415
-1.706596
-4.989807
-8.524696
-12.579086
-17.468719
-23.342239
-29.915436
-36.342400
-41.307098
-43.335243
-41.302849
-34.889114
-24.840233
-12.749756
-0.602520
9.874065
17.707649
22.742199
25.457367
26.508480
26.437981
25.502720
23.844700
21.649055
19.289326
17.250996
16.014881
15.802563
16.411110
17.320370
17.845245
17.452671
15.942871
13.554085
10.835907
8.344555
6.369446
4.716042
2.825180
-0.026966
-4.356209
-10.294437
-17.541058
-25.516239
-33.504799
-40.744343
-46.412697
-49.613789
-49.500980
-45.525040
-37.729660
-26.838543
-14.194111
-1.382879
10.107149
19.238613
25.510983
28.869652
29.634853
28.325960
25.597404
22.152542
18.654425
15.656210
13.512016
12.322962
11.989082
12.234062
12.683704
12.941296
12.656261
11.622191
9.830223
7.435176
4.701030
1.850770
-1.026724
-4.003569
-7.307798
-11.266764
-16.221676
-22.398102
-29.739328
-37.798050
-45.634415
-51.988445
-55.573860
-55.438816
-51.356251
-43.865608
-34.153423
-23.653992
-13.645487
-4.997822
1.797728
6.539972
9.129677
9.572987
8.066965
5.081402
1.330650
-2.404037
-5.564304
-8.000488
-9.885883
-11.619240
-13.468025
-15.449829
-17.406937
-19.147842
-20.620934
-21.992805
-23.589050
-25.751617
-28.711174
-32.595886
-37.376228
-42.944496
-49.145378
-55.893501
-63.206535
-71.236145
-80.136154
-89.879166
-100.062576
-109.847961
-118.046387
-123.368500
-124.812073
-121.964020
-115.285812
-106.105957
-96.445053
-88.359848
-83.175003
-80.720230
-78.921326
-74.157791
-62.111664
-39.114685
-3.318542
44.610748
101.446777
161.933258
219.867584
269.350159
306.074371
328.289734
337.051697
335.649750
328.458130
319.530487
311.507751
305.196594
299.852539
293.835968
285.241577
272.338501
253.705109
228.407379
196.132874
157.423370
113.818756
67.737823
21.955566
-21.043457
-59.675537
-93.666504
-123.993896
-152.656158
-182.153748
-215.180664
-254.174194
-300.608154
-353.996674
-411.096161
-465.831116
-510.533081
-538.271484
-545.344421
-532.734924
-505.680267
-471.536438
-437.089203
-406.542297
-381.163940
-360.287903
-342.860474
-328.344757
-316.701569
-307.615601
-299.836060
-291.183044
-279.290161
-262.609985
-241.013367
-215.827148
-189.096130
-162.578430
-137.002136
-111.837463
-85.689758
-57.173462
-25.535645
8.977234
45.346985
82.208252
118.233765
152.219299
182.979126
209.276123
229.954834
244.284546
252.182373
254.321167
251.929077
246.440308
239.334961
232.059326
226.151733
223.143799
224.438965
230.836548
242.314331
257.979126
276.447754
296.408569
317.113281
338.671021
361.864868
387.670288
416.355957
446.750000
476.005249
500.117310
515.139038
518.617188
510.512085
493.147095
470.223267
445.377075
421.064819
398.229614
376.768921
356.349731
336.970093
319.027222
302.930298
288.655640
275.618286
262.856079
249.522095
235.234009
220.239258
205.202881
190.853271
177.640625
165.552612
154.164795
142.895142
131.284058
119.197021
106.874146
94.774292
83.368896
72.882568
63.242798
54.012390
44.631531
34.561584
23.515869
11.489624
-1.199463
-14.074524
-26.651123
-38.586670
-49.785156
-60.391602
-70.699402
-81.043579
-91.654907
-102.587341
-113.796967
-125.225525
-136.826874
-148.686646
-160.920166
-173.652527
-187.022003
-201.346466
-217.267746
-235.666428
-257.215210
-281.664673
-307.296753
-331.008728
-349.062286
-358.349792
-357.566681
-347.655731
-331.272247
-311.724396
-291.868134
-273.582458
-257.803955
-244.924805
-234.986679
-227.565125
-221.551758
-215.159225
-206.516830
-194.539001
-179.663803
-163.815506
-149.581924
-138.896606
-131.897614
-126.704605
-120.313934
-110.013016
-94.732574
-75.432251
-54.552368
-34.793640
-18.302216
-5.928467
2.600708
8.080322
11.206024
12.595825
13.086334
14.082245
17.308716
24.135864
35.287476
50.717743
69.694397
90.912170
112.612000
132.835327
149.738953
161.999268
168.572906
169.818634
167.528412
164.356934
162.593811
163.264008
166.036530
169.715393
172.945831
173.023987
168.528137
160.111206
150.125702
140.866486
133.202850
126.404083
118.746735
108.467438
90.919739
63.937531
29.385773
-7.443817
-41.303955
-69.435089
-91.943329
-110.840973
-128.898468
-154.351868
-192.464233
-242.426727
-297.616150
-350.014740
-394.127472
-427.734833
-451.251740
-466.981781
-485.905304
-516.925781
-562.561829
-618.136230
-676.383484
-731.312561
-778.932922
-816.950195
-797.930359
-699.270325
-536.361328
-354.316559
-193.892151
-71.848022
14.195435
74.171509
117.703094
151.209625
168.572906
168.323593
153.984955
134.253067
118.054482
110.337761
111.970032
121.339767
136.249496
149.606110
154.696808
150.955933
143.336044
137.939301
138.482880
145.892105
159.240158
176.811356
193.072098
203.936295
208.673737
209.833466
210.927185
214.640106
222.925598
237.407776
259.154724
285.871033
313.275299
335.735748
347.297607
342.677429
318.857300
276.771179
221.745209
162.452087
108.225891
67.745728
47.528870
50.502869
74.952942
114.484009
159.428040
199.370728
225.963745
234.915466
226.544373
204.796814
175.219910
143.216919
112.931152
86.929993
66.266479
50.669922
38.707153
28.286194
17.489258
5.406006
-7.391663
-18.999695
-27.070374
-29.690369
-26.028503
-16.590515
-3.065857
12.066040
25.911469
35.842163
40.416992
40.400696
39.227478
42.311432
55.147491
80.902588
118.606079
163.023193
206.380463
241.133331
262.467834
269.425659
264.302979
250.938354
232.857895
212.277481
190.004715
166.078033
140.384933
112.904922
83.518753
51.879074
17.572372
-19.349037
-57.834503
-95.474197
-128.825745
-154.453278
-170.165741
-175.914658
-173.940826
-168.023773
-162.149994
-159.158875
-159.932495
-163.343506
-166.936096
-167.913544
-164.262161
-155.450272
-142.690552
-128.462082
-115.646744
-106.438736
-101.656906
-100.642883
-101.726761
-102.969391
-102.758484
-100.181671
-95.019928
-87.601929
-78.645203
-69.137177
-60.143890
-52.549927
-46.898773
-43.269653
-41.328217
-40.494904
-40.121460
-39.608826
-38.479126
-36.479706
-33.797241
-31.144043
-29.655518
-30.525513
-34.510986
-41.425323
-50.034576
-58.317719
-64.140167
-65.886719
-62.986359
-55.938019
-46.034332
-34.834045
-23.677551
-13.422791
-4.481873
3.018585
8.991486
13.336670
15.964294
16.884949
16.138184
13.746521
9.640198
3.651520
-4.333191
-14.176605
-25.365784
-36.952637
-47.739197
-56.444397
-61.974915
-63.694122
-61.607269
-56.366272
-49.251495
-41.809479
-35.580475
-31.683533
-30.647186
-32.476807
-36.838898
-43.252136
-51.267059
-60.326111
-69.715332
-78.405762
-85.147766
-88.652191
-87.955109
-82.760406
-73.563873
-61.524445
-48.157837
-34.959015
-23.082886
-13.282318
-5.950073
-1.266876
0.707642
0.117554
-2.601379
-6.662720
-11.025360
-14.578247
-16.490601
-16.284363
-14.019226
-10.065247
-5.059448
0.287384
5.303345
9.415588
12.188141
13.451569
13.227661
11.723602
9.226685
5.998840
2.184418
-2.220062
-7.326172
-13.242126
-20.064209
-27.734131
-36.077972
-44.651184
-52.727631
-59.253235
-63.026520
-62.945587
-58.369690
-49.375290
-36.828079
-22.133270
-6.951935
7.251236
19.384476
28.867004
35.510361
39.437592
40.986145
40.625977
38.951797
36.594711
34.100113
31.860458
30.108383
28.956589
28.388138
28.364670
28.703735
29.170380
29.416534
29.120079
28.044441
26.148193
23.496658
20.252232
16.521309
12.371643
7.797562
2.767525
-2.808538
-9.063602
-16.194622
-24.290833
-33.140240
-42.008217
-49.631630
-54.471622
-55.234234
-51.267582
-42.837086
-31.043327
-17.441624
-3.576782
9.335693
20.518105
29.593643
36.411499
40.932594
43.257446
43.591927
42.374466
40.239731
37.941788
36.165665
35.366425
35.678589
36.884979
38.575424
40.289658
41.657181
42.437119
42.458755
41.637009
39.934143
37.390961
34.170654
30.534607
26.714096
22.883270
18.990387
14.787247
9.941788
4.118210
-2.874176
-10.889862
-19.401932
-27.477707
-33.940826
-37.560364
-37.391083
-33.020355
-24.711029
-13.311768
-0.131805
13.403961
25.915771
36.329956
43.915680
48.371185
49.754120
48.495544
45.253326
40.831512
36.058136
31.682312
28.241760
26.021851
25.006714
24.974609
25.532898
26.286041
26.935577
27.267883
27.154907
26.518982
25.329376
23.562683
21.231079
18.422882
15.184937
11.479065
7.190613
2.149750
-3.823608
-10.754150
-18.444733
-26.356354
-33.665009
-39.270844
-42.072296
-41.155975
-36.177246
-27.432770
-15.859467
-2.819122
10.169250
21.806885
31.123047
37.606201
41.134949
41.955109
40.524780
37.457916
33.384064
28.942383
24.770691
21.439331
19.367676
18.708862
19.201691
20.260040
21.205597
21.521088
21.036163
19.886688
18.309631
16.449463
14.261993
11.633575
8.491272
4.939758
1.138702
-2.878113
-7.340668
-12.643188
-19.136292
-26.719940
-34.737457
-41.945557
-46.873566
-48.185638
-45.165253
-37.870087
-27.166748
-14.455719
-1.258698
11.064453
21.551544
29.613892
34.947266
37.412689
37.077454
34.318268
29.856049
24.710541
19.961487
16.460663
14.596375
14.272675
15.000427
16.163483
17.171661
17.636566
17.329803
16.210022
14.295593
11.685364
8.528046
4.953186
1.078705
-3.003204
-7.282440
-11.824951
-16.891693
-22.838440
-30.023743
-38.596588
-48.235077
-57.996033
-66.389435
-71.728363
-72.607880
-68.318756
-59.071136
-45.871063
-30.258667
-13.845886
1.921600
15.888519
27.225098
35.420197
40.256622
41.886993
40.808624
37.869781
34.012207
30.157410
26.984070
24.845032
23.790039
23.635284
24.061768
24.713745
25.248627
25.373535
24.880737
23.638336
21.612244
18.896606
15.661560
12.114044
8.406158
4.586853
0.500122
-4.182098
-9.861664
-16.913208
-25.524780
-35.544006
-46.446259
-57.241455
-66.601227
-73.045410
-75.241211
-72.347321
-64.351532
-52.016846
-36.743561
-20.160370
-3.742828
11.399567
24.531586
35.129517
42.730103
47.070160
48.192993
46.659241
43.505859
39.998688
37.225586
35.745117
35.529724
36.098267
36.773773
37.073456
36.767151
35.864502
34.469543
32.679352
30.417572
27.571259
23.985901
19.602478
14.526337
9.023254
3.421326
-1.964935
-7.082611
-12.103668
-17.425873
-23.466949
-30.528748
-38.634491
-47.453430
-56.188843
-63.663025
-68.469604
-69.253510
-65.117676
-55.957245
-42.543091
-26.331909
-9.035553
7.757996
22.897095
35.585175
45.313995
51.745514
54.704285
54.298492
51.024414
45.749084
39.589203
33.618256
28.688171
25.270050
23.430786
22.915436
23.332275
24.288849
25.504791
26.802094
27.994659
28.788544
28.764526
27.462189
24.630188
20.357361
15.144043
9.647552
4.414459
-0.323303
-4.742096
-9.264130
-14.352509
-20.351807
-27.408112
-35.469208
-44.260376
-53.200958
-61.300171
-67.213379
-69.509766
-67.132355
-59.751831
-48.002655
-33.338806
-17.578033
-2.395599
11.001099
21.950134
30.186951
35.623016
38.263245
38.227203
35.924774
32.142303
27.898041
24.258026
21.924530
21.132111
21.589417
22.707825
23.900085
24.777161
25.256744
25.427124
25.382141
25.050293
24.182434
22.473846
19.717255
15.951416
11.459839
6.735077
2.180695
-1.980072
-5.798767
-9.542328
-13.604095
-18.330078
-23.978119
-30.614502
-38.065125
-45.871613
-53.212952
-58.937256
-61.824615
-60.853546
-55.577332
-46.302551
-34.001068
-20.032013
-5.828247
7.419006
18.749512
27.499512
33.264374
35.963562
35.902008
33.799896
30.668396
27.527527
25.129517
23.769196
23.265686
23.199066
23.192566
23.038269
22.743683
22.490692
22.339386
22.208496
21.799133
20.773102
18.911682
16.244293
12.988464
9.420654
5.583679
1.304871
-3.673492
-9.487183
-16.008698
-22.855438
-29.606476
-35.898285
-41.426453
-45.784149
-48.324310
-48.175385
-44.605255
-37.333496
-26.806915
-14.164154
-0.887573
11.603058
22.240051
30.362244
35.656647
38.052734
37.650543
34.873901
30.378204
25.030060
19.726486
15.225327
11.982086
10.173584
9.694351
10.236084
11.359970
12.567230
13.366257
13.377594
12.289032
9.976105
6.504257
2.197372
-2.487000
-7.072113
-11.259094
-15.028030
-18.676605
-22.721054
-27.663040
-33.903809
-41.608704
-50.505051
-59.835449
-68.326721
-74.307785
-76.118362
-72.633377
-63.697128
-50.219421
-33.929871
-16.881912
-0.859573
12.894470
23.733109
31.420731
35.963486
37.516479
36.436920
33.299789
28.932968
24.253815
20.081787
16.967560
15.130234
14.450256
14.632904
15.316833
16.165543
16.912537
17.310135
17.122543
16.092621
13.973175
10.637146
6.170532
0.836563
-4.944534
-10.759048
-16.363190
-21.778854
-27.299942
-33.345840
-40.298203
-48.215805
-56.623245
-64.490662
-70.415741
-72.932434
-71.040680
-64.424362
-53.623840
-39.832077
-24.585236
-9.390930
4.511459
16.275818
25.355637
31.481659
34.631378
35.058304
33.301971
30.139557
26.460953
23.100830
20.640305
19.308899
18.993576
19.326767
19.923035
20.521591
21.046371
21.453903
21.592438
21.137787
19.694519
17.063522
13.426025
9.310669
5.353638
1.957733
-0.890808
-3.631577
-6.866760
-11.154984
-16.900345
-24.238739
-33.087662
-42.973938
-52.948730
-61.516586
-66.909927
-67.577850
-62.727478
-52.627029
-38.575089
-22.413452
-6.076996
8.939957
21.721146
31.875336
39.269852
43.917038
45.887817
45.354599
42.784119
38.932648
34.722229
30.961044
28.032928
25.892715
24.178909
22.543701
20.906860
19.440582
18.361206
17.660507
16.965073
15.704514
13.413101
10.017105
5.870071
1.545227
-2.503250
-6.140793
-9.623917
-13.406876
-17.914551
-23.393097
-29.882477
-37.205612
-44.963577
-52.490753
-58.875229
-62.992477
-63.681610
-60.080322
-51.918793
-39.708878
-24.719238
-8.662735
6.653748
19.797806
29.851974
36.485657
39.771408
40.061569
37.911224
34.016571
29.218262
24.405396
20.368149
17.634933
16.367508
16.421585
17.397369
18.918732
20.604218
22.212570
23.519516
24.369095
24.542770
23.871796
22.190231
19.462234
15.820786
11.536514
6.939514
2.297775
-2.352982
-7.258469
-12.836319
-19.438934
-27.102554
-35.321396
-43.047318
-48.856537
-51.355103
-49.594208
-43.357346
-33.243011
-20.513962
-6.712799
6.670288
18.529648
28.148834
35.162857
39.425934
40.960922
40.011887
37.146164
33.213394
29.171799
25.736084
23.227692
21.478012
20.142410
18.931091
17.861664
17.129608
16.906952
17.105911
17.316956
16.962540
15.551910
12.856628
8.970810
4.227051
-0.939255
-6.172134
-11.299789
-16.371506
-21.655701
-27.472519
-33.899017
-40.584625
-46.603958
-50.713196
-51.734589
-48.983734
-42.465485
-32.858276
-21.157181
-8.374725
4.575226
16.855637
27.597794
35.869843
40.864395
42.093857
39.678864
34.452835
27.757675
21.099899
15.734512
12.344788
11.001083
11.297775
12.608749
14.316422
15.925400
17.009964
17.242813
16.395798
14.386398
11.339218
7.574905
3.468979
-0.703995
-4.871445
-9.213882
-14.098709
-19.892471
-26.817444
-34.734787
-42.998199
-50.501953
-55.791763
-57.474274
-54.630539
-47.152176
-35.835037
-22.138306
-7.791199
5.711548
17.327881
26.536591
33.170258
37.238754
38.817169
38.096466
35.470367
31.608612
27.381180
23.666428
21.123489
19.996506
20.061203
20.773422
21.491104
21.689148
21.033997
19.468124
17.040833
13.883377
10.129654
5.872482
1.172028
-3.943481
-9.521988
-15.650009
-22.446945
-30.029373
-38.475403
-47.698196
-57.360031
-66.732544
-74.701935
-79.858566
-80.862808
-76.799622
-67.540192
-53.864258
-37.313812
-19.779465
-3.076233
11.493881
23.204346
31.827133
37.432663
40.224579
40.451599
38.546524
35.063828
30.792450
26.594040
23.280777
21.381668
21.043907
22.007172
23.693283
25.416962
26.579208
26.806625
25.978165
24.178925
21.545227
18.165962
14.127594
9.451141
4.264603
-1.256073
-6.942902
-12.697403
-18.605141
-24.910362
-31.893974
-39.671478
-47.867004
-55.468658
-60.933815
-62.601257
-59.302116
-50.837204
-38.118332
-22.879913
-7.038536
7.821289
20.763176
31.375946
39.496376
44.989037
47.731918
47.779259
45.543922
41.835030
37.645119
33.902725
31.245438
29.886116
29.677826
30.182533
30.885185
31.336273
31.357170
30.969772
30.349602
29.576820
28.498154
26.718964
23.804367
19.505730
13.948143
7.554970
0.863358
-5.684715
-11.922371
-17.946991
-23.996780
-30.359352
-37.217964
-44.562851
-52.073677
-59.038063
-64.361320
-66.812340
-65.355133
-59.539581
-49.664658
-36.769089
-22.244698
-7.492126
6.380753
18.651459
28.902908
36.834084
42.191170
44.763962
44.572578
42.038006
38.065540
33.779144
30.318653
28.404301
28.243107
29.476799
31.468529
33.504337
34.994793
35.569298
35.116055
33.749264
31.768604
29.516502
27.247978
24.987772
22.488194
19.378426
15.416409
10.588673
5.212875
-0.346184
-5.810197
-11.102763
-16.330605
-21.670002
-27.275978
-33.236599
-39.573647
-46.135128
-52.501984
-57.858032
-61.050480
-60.930271
-56.716324
-48.372688
-36.657661
-22.952194
-8.781776
4.528913
16.128132
25.583424
32.739311
37.514202
39.847878
39.765842
37.571308
33.976814
30.065788
26.906864
25.251583
25.226009
26.350334
27.855690
29.116692
29.912468
30.384560
30.774490
31.130707
31.228226
30.697815
29.262711
26.921822
23.878914
20.380928
16.584671
12.487091
7.991928
3.115524
-2.040634
-7.271492
-12.371353
-17.248520
-22.005676
-26.937012
-32.450562
-38.842941
-46.036240
-53.385193
-59.764648
-63.757858
-64.235367
-60.683807
-53.387466
-43.219666
-31.359695
-18.954163
-6.939774
3.877701
12.873352
19.534500
23.566757
24.954041
23.953979
21.099472
17.108017
12.839340
9.155396
6.791565
6.139755
7.099411
9.160080
11.579834
13.667770
15.023102
15.593399
15.551331
15.122620
14.427383
13.410828
11.927521
9.837311
7.084106
3.758698
0.049225
-3.804993
-7.611511
-11.357513
-15.164551
-19.248413
-23.805450
-28.929199
-34.583862
-40.605682
-46.747192
-52.593018
-57.562683
-60.934937
-61.928741
-59.991821
-54.951752
-47.091675
-37.102631
-25.921173
-14.491730
-3.709503
5.633606
12.914764
17.693634
19.829193
19.618225
17.677795
14.872894
12.029480
9.799316
8.525360
8.273926
8.921326
10.272675
12.094452
14.144684
16.129974
17.762878
18.734711
18.829895
17.989349
16.308014
13.997253
11.354858
8.571381
5.756012
2.950897
0.164764
-2.631500
-5.473999
-8.600861
-12.376831
-17.182617
-23.226196
-30.303345
-37.743835
-44.497803
-49.385498
-51.430298
-50.098938
-45.387970
-37.755402
-27.954254
-16.829742
-5.208191
6.176727
16.629120
25.502838
32.240723
36.470734
38.235138
38.010773
36.734558
35.460327
34.952240
35.414764
36.486237
37.470123
37.736542
37.052490
35.578308
33.731628
31.901062
30.246979
28.629181
26.700165
24.031616
20.280823
15.321594
9.323090
2.754395
-3.789673
-9.776398
-14.997253
-19.569977
-23.896118
-28.474579
-33.671143
-39.695953
-46.556274
-54.025299
-61.555176
-68.243713
-72.881470
-74.254395
-71.547363
-64.637024
-54.258118
-41.720032
-28.520355
-16.025940
-5.190857
3.430115
9.603302
13.296509
14.650360
13.957306
11.687408
8.489502
5.080688
2.157166
0.223175
-0.570740
-0.370728
0.495819
1.707794
3.086761
4.677704
6.549103
8.630646
10.650574
12.160309
12.692383
11.985199
10.004578
7.006897
3.360748
-0.546173
-4.417053
-8.105164
-11.691345
-15.414215
-19.684601
-24.898315
-31.242371
-38.461914
-45.829865
-52.136444
-56.037354
-56.406219
-52.670319
-44.986328
-34.191956
-21.563324
-8.469666
3.946472
14.867584
23.807312
30.441925
34.583191
36.174469
35.375366
32.661255
28.801575
24.699921
21.194550
18.836273
17.826843
17.992035
18.949677
20.210602
21.379486
22.226624
22.710297
22.879425
22.748291
22.176941
20.939941
18.777527
15.581665
11.499786
6.888916
2.121735
-2.555450
-7.151917
-11.862457
-16.978821
-22.631897
-28.777832
-35.150970
-41.366180
-46.979584
-51.457184
-54.155762
-54.397125
-51.535675
-45.201416
-35.434814
-22.874054
-8.608795
5.966492
19.498749
30.948456
39.759277
45.827423
49.376160
50.743073
50.283447
48.399048
45.646912
42.736755
40.497498
39.605011
40.394745
42.775482
46.360168
50.655243
55.147461
59.150726
61.726868
61.626312
57.627319
48.994110
35.931305
19.647034
2.037811
-14.984558
-30.030243
-42.541901
-52.633118
-60.895905
-67.993958
-74.520782
-80.818909
-86.985107
-92.693207
-97.215881
-99.548737
-98.625885
-93.745880
-84.806946
-72.425873
-57.829865
-42.462555
-27.649475
-14.341217
-3.052155
6.011353
12.769775
17.231750
19.489044
19.864532
18.897400
17.274384
15.581635
14.208832
13.263580
12.701080
12.483398
12.676880
13.401978
14.684296
16.348755
17.982513
19.052856
19.116608
17.898773
15.436401
12.033569
8.175995
4.350800
0.916992
-2.035858
-4.749725
-7.678589
-11.328094
-16.042023
-21.884491
-28.538849
-35.240417
-40.886963
-44.192169
-44.033478
-39.786346
-31.611053
-20.419586
-7.681946
5.084717
16.609650
26.111816
33.200684
37.728546
39.651001
39.054932
36.277496
32.012878
27.169067
22.665314
19.178528
16.978943
15.968262
15.849426
16.223602
16.817810
17.496185
18.216980
18.960266
19.629303
20.043243
19.942291
19.104187
17.408875
14.935486
11.933807
8.667633
5.326630
1.888702
-1.871063
-6.307281
-11.625854
-17.853790
-24.609863
-31.194977
-36.622284
-39.914734
-40.303833
-37.512207
-31.792603
-23.837769
-14.579529
-4.934937
4.339783
12.620148
19.395020
24.207245
26.732239
26.904419
25.050690
21.803680
17.976135
14.291046
11.235016
8.992096
7.580536
6.958435
7.121796
8.099564
9.842239
12.096191
14.396301
16.083527
16.553146
15.470169
12.953186
9.473923
5.693344
2.091553
-1.206970
-4.453018
-8.071976
-12.414185
-17.586288
-23.385559
-29.375549
-34.894226
-39.102539
-41.116867
-40.143234
-35.744751
-28.058167
-17.865524
-6.417496
4.870972
14.784073
22.469589
27.533768
29.927994
29.899841
27.882812
24.468674
20.330338
16.117905
12.394989
9.553940
7.780090
7.095566
7.321136
8.193161
9.385956
10.610443
11.618530
12.249756
12.406128
12.083603
11.326279
10.183975
8.650040
6.641312
3.933716
0.227966
-4.713333
-10.898560
-18.027466
-25.486786
-32.454422
-38.054657
-41.533371
-42.309570
-40.097549
-34.945099
-27.303726
-17.897476
-7.663879
2.486740
11.726959
19.435974
25.119904
28.404892
29.105957
27.304245
23.450806
18.335770
12.928970
8.123917
4.534775
2.441849
1.826416
2.478287
4.041107
6.075653
8.032715
9.350464
9.545654
8.413086
6.060547
2.840256
-0.840332
-4.655518
-8.515106
-12.576355
-17.163361
-22.653854
-29.315552
-37.108383
-45.572617
-53.757767
-60.376770
-64.142471
-64.131042
-60.024658
-52.225220
-41.642822
-29.483734
-16.967896
-5.155930
5.110306
13.214554
18.748413
21.590324
21.902878
20.183563
17.168358
13.693527
10.509712
8.162613
6.872604
6.635231
7.258179
8.484222
10.014694
11.539772
12.728714
13.217285
12.723297
11.107040
8.482475
5.153259
1.515724
-2.104195
-5.582947
-9.047905
-12.857716
-17.487179
-23.391056
-30.734589
-39.249825
-48.113003
-56.061443
-61.598228
-63.484840
-60.978428
-54.120255
-43.619053
-30.667831
-16.608063
-2.653803
10.255710
21.483555
30.570391
37.189594
41.160439
42.503311
41.584923
39.088276
35.884800
32.774990
30.280323
28.566780
27.532829
27.004044
26.859722
27.100182
27.725834
28.623341
29.526569
30.017372
29.631222
28.068306
25.176910
21.050949
16.022316
10.529686
5.093948
0.094833
-4.334007
-8.429718
-12.715050
-17.830673
-24.218689
-31.849976
-40.093506
-47.805374
-53.575310
-56.130951
-54.638641
-48.970474
-39.647171
-27.699234
-14.383545
-0.904022
11.765182
22.907959
32.016739
38.735779
42.879517
44.477615
43.865295
41.700180
38.804367
35.976746
33.812225
32.571793
32.224564
32.526184
33.183838
33.925735
34.557053
34.936356
34.973679
34.575989
33.645386
32.107437
29.922455
27.117142
23.778732
20.045990
16.059326
11.893448
7.645386
3.373276
-0.804169
-4.777466
-8.530457
-12.238281
-16.236969
-20.908463
-26.370041
-32.265976
-37.666595
-41.272858
-41.788605
-38.355804
-30.913635
-20.149429
-7.301422
6.199875
19.142624
30.644669
40.211533
47.551178
52.444824
54.758881
54.515213
52.049255
48.010910
43.315918
38.881744
35.408676
33.219177
32.252533
32.162292
32.496124
32.847626
32.903259
32.517761
31.662598
30.351181
28.609314
26.435333
23.762405
20.540604
16.773849
12.574188
8.148270
3.673492
-0.765167
-5.179581
-9.650955
-14.258606
-19.083084
-24.184662
-29.637054
-35.488586
-41.646225
-47.729691
-53.058609
-56.685867
-57.676971
-55.308197
-49.333054
-40.088669
-28.418777
-15.505753
-2.650131
9.018585
18.674820
25.834763
30.340271
32.199753
31.628036
29.047134
25.085724
20.574768
16.417740
13.384857
11.909760
12.056335
13.508430
15.769493
18.241936
20.390633
21.794289
22.245300
21.763298
20.567154
18.964012
17.191071
15.261337
13.021561
10.224915
6.742363
2.671661
-1.678452
-5.941132
-9.764229
-13.029808
-15.769615
-18.191246
-20.633850
-23.491249
-27.117867
-31.688919
-37.020950
-42.465828
-47.036575
-49.633827
-49.336914
-45.726768
-38.983734
-29.868851
-19.500076
-9.101021
0.222183
7.664406
12.775536
15.502068
16.110352
15.115177
13.154388
10.856724
8.739388
7.152740
6.249943
6.051636
6.508579
7.494003
8.871063
10.457802
12.046997
13.503372
14.811344
16.095768
17.436584
18.774464
19.810913
20.048943
19.070038
16.722446
13.226990
9.052647
4.707619
0.498878
-3.555214
-7.639839
-12.001898
-16.837290
-22.255756
-28.258368
-34.661449
-41.005386
-46.498772
-50.103302
-50.820023
-48.036652
-41.786575
-32.778168
-22.215414
-11.435043
-1.567327
6.659590
12.923334
17.168007
19.431522
19.759323
18.248777
15.169395
11.080709
6.805313
3.225649
1.018922
0.407791
1.123551
2.546980
3.975383
4.964101
5.401141
5.472899
5.390637
5.233652
4.878803
4.052785
2.512804
0.237198
-2.560542
-5.471146
-8.092123
-10.218911
-11.965461
-13.783523
-16.241531
-19.770714
-24.397610
-29.616879
-34.451019
-37.649731
-38.082924
-34.962795
-28.032162
-17.548506
-4.281243
10.633298
25.746088
39.411205
49.993240
56.114948
57.002331
52.700363
44.126862
32.875561
20.824322
9.658474
0.537997
-6.057478
-10.230618
-12.425526
-13.159384
-12.850888
-11.856469
-10.466466
-9.014193
-7.842230
-7.207991
-7.166671
-7.525220
-7.966027
-8.205150
-8.152249
-7.931537
-7.828890
-8.141091
-9.061337
-10.702126
-13.092020
-16.211246
-19.926229
-23.832602
-27.181068
-28.908272
-27.910896
-23.353323
-15.021091
-3.388742
10.522421
25.434612
40.089973
53.504093
65.023102
74.340294
81.489738
86.834587
90.954178
94.568741
98.319130
102.572250
107.377708
112.522247
117.694901
122.804596
128.180786
134.696869
143.381134
154.829010
168.326080
181.409943
190.110718
190.044434
177.796600
152.115372
114.255630
67.514717
16.126114
-35.728348
-84.612213
-128.001770
-164.282120
-192.542313
-212.595367
-224.779953
-229.866486
-228.784592
-222.460449
-211.808319
-197.866058
-181.822800
-164.906342
-148.169556
-132.301712
-117.611298
-104.254288
-92.460678
-82.641037
-75.163177
-70.167679
-67.243362
-65.489380
-63.741577
-61.043884
-56.949448
-51.635391
-45.726990
-39.958267
-34.847580
-30.562851
-27.011780
-24.037872
-21.587814
-19.819473
-19.012817
-19.528824
-21.529221
-24.952988
-29.396988
-34.273514
-39.041183
-43.467957
-47.745590
-52.347183
-57.674896
-63.633850
-69.428192
-73.676956
-74.840164
-71.816330
-64.283569
-52.860001
-38.808655
-23.700897
-8.964279
4.321701
15.454887
24.011536
29.768745
32.677834
32.966446
31.249443
28.489380
25.781132
24.029781
23.677412
24.599064
26.228830
27.922863
29.260782
30.182472
30.876492
31.566330
32.266220
32.725052
32.560562
31.452194
29.318699
26.370781
22.983978
19.525887
16.200089
12.994263
9.663155
5.872185
1.245712
-4.459732
-11.230515
-18.674637
-25.969482
-31.927124
-35.230148
-34.794113
-30.096085
-21.358154
-9.523880
3.995392
17.688065
30.255112
40.781799
48.755737
53.985153
56.521545
56.594162
54.668106
51.382996
47.570526
44.065552
41.566223
40.411835
40.530609
41.474060
42.679474
43.647247
44.149750
44.186493
43.886414
43.316895
42.363464
40.818420
38.491211
35.374420
31.670288
27.708282
23.795715
20.019440
16.246552
12.196899
7.572693
2.162506
-4.106323
-11.147919
-18.672577
-26.112854
-32.608887
-37.085327
-38.513641
-36.215729
-30.121735
-20.867371
-9.597473
2.328339
13.668091
23.466125
31.152008
36.448303
39.342987
40.047638
39.000854
36.827698
34.215637
31.817841
30.066895
29.152557
29.006531
29.370270
29.907654
30.315857
30.397217
30.079590
29.399017
28.431122
27.215302
25.698853
23.736328
21.141571
17.773499
13.640350
8.884369
3.776001
-1.387573
-6.360077
-11.053284
-15.543518
-20.094513
-25.027618
-30.624756
-36.868317
-43.303040
-49.012451
-52.756287
-53.330048
-49.973145
-42.671051
-32.234253
-20.089203
-7.834625
3.212219
12.265930
19.103638
23.848602
26.725006
27.901276
27.503662
25.757629
23.081909
20.164581
17.801147
16.661102
17.041229
18.731781
21.116241
23.380920
24.855499
25.284912
24.891113
24.260223
24.007050
24.424042
25.306671
26.010864
25.746582
23.998932
20.798279
16.715942
12.579926
9.078094
6.444092
4.385620
2.274719
-0.547821
-4.536133
-9.764191
-15.927216
-22.355682
-28.088898
-32.013611
-33.134369
-30.865967
-25.356903
-17.532501
-8.878632
-0.961365
5.095581
8.870300
10.647186
11.077728
10.768799
10.062775
8.985016
7.472321
5.567474
3.619659
2.185089
1.790100
2.710693
4.833832
7.717590
10.842621
13.805481
16.465820
18.842957
20.955231
22.674194
23.706329
23.701721
22.432343
19.927551
16.456635
12.374847
8.014679
3.598663
-0.739502
-4.898315
-8.756165
-12.238373
-15.399658
-18.490936
-21.903168
-25.937744
-30.557526
-35.217346
-38.891541
-40.363586
-38.651184
-33.431488
-25.184326
-15.082336
-4.536652
5.187561
13.332550
19.643951
24.213806
27.185913
28.592865
28.405579
26.664185
23.686951
20.100983
16.708862
14.244019
13.076080
13.074188
13.691040
14.173737
13.876007
12.531677
10.289978
7.630005
5.078735
2.947083
1.196228
-0.561096
-2.806152
-5.864563
-9.742584
-14.075439
-18.314392
-21.983948
-24.905914
-27.285553
-29.644379
-32.585358
-36.551971
-41.540863
-47.036743
-52.017303
-55.206085
-55.475677
-52.207062
-45.540344
-36.341064
-25.922638
-15.634949
-6.544556
0.735474
6.005402
9.270325
10.669556
10.360260
8.707306
6.259155
3.784393
2.040405
1.549225
2.345612
4.032806
5.916901
7.355377
7.997284
7.884552
7.362335
6.838898
6.578064
6.555481
6.485046
6.026154
4.877747
2.962799
0.427185
-2.418121
-5.268188
-7.941284
-10.499481
-13.207642
-16.409729
-20.316040
-24.808746
-29.317810
-32.913025
-34.587891
-33.586243
-29.675903
-23.354584
-15.593628
-7.566345
-0.211304
5.940613
10.802185
14.552765
17.365417
19.234711
19.991852
19.459229
17.643768
14.886810
11.833679
9.236389
7.696198
7.452423
8.309692
9.785187
11.293671
12.371490
12.845520
12.750153
12.219604
11.314789
9.948853
7.953613
5.249176
1.985138
-1.501099
-4.864288
-7.943359
-10.980164
-14.454163
-18.781891
-23.908142
-29.099884
-33.049591
-34.336365
-31.955841
-25.772339
-16.593903
-5.878265
4.772827
14.071533
21.341095
26.473206
29.733429
31.475189
31.906891
31.076752
29.021271
25.879028
22.087830
18.283264
15.154053
13.170258
12.379944
12.411865
12.680664
12.602295
11.896393
10.615051
9.075256
7.628510
6.408447
5.266541
3.820190
1.640076
-1.516327
-5.606659
-10.288574
-15.178955
-19.962952
-24.532623
-28.839508
-32.719116
-35.692871
-37.007629
-35.914703
-31.996796
-25.418335
-16.951904
-7.698853
1.229462
9.035187
15.342834
20.119385
23.492279
25.575775
26.376648
25.893311
24.121033
21.263550
17.755035
14.208008
11.280090
9.434814
8.816193
9.175964
10.013428
10.749298
10.951508
10.445648
9.278412
7.701843
5.925812
4.114990
2.250610
0.138214
-2.590118
-6.326660
-11.375153
-17.756073
-25.081329
-32.537750
-38.982025
-43.253998
-44.416870
-42.047729
-36.348724
-28.066711
-18.267761
-8.009766
1.829773
10.654541
18.117523
23.951508
27.935547
29.944794
30.063751
28.668945
26.369141
23.844452
21.643158
20.024078
18.958221
18.301544
17.877686
17.597626
17.402191
17.194519
16.785187
15.964478
14.565063
12.519562
9.861633
6.687408
3.163879
-0.555939
-4.328430
-8.096558
-12.032776
-16.488800
-21.895996
-28.442688
-35.877411
-43.316376
-49.405609
-52.715240
-52.184448
-47.502960
-39.226410
-28.585724
-17.054138
-5.969269
3.802094
11.884521
18.293579
23.166168
26.616577
28.685242
29.411469
28.983002
27.775574
26.335846
25.191010
24.667938
24.832916
25.459747
26.251648
26.910553
27.266602
27.293732
27.036438
26.532654
25.742249
24.562378
22.815033
20.395325
17.262665
13.553650
9.455994
5.172272
0.770020
-3.891785
-9.120667
-15.196198
-22.079254
-29.218689
-35.543243
-39.803314
-40.898407
-38.337891
-32.349030
-23.776733
-13.751495
-3.354401
6.615570
15.642242
23.433838
29.760986
34.386139
37.129364
37.959900
37.086304
35.005249
32.350464
29.797424
27.806915
26.540314
25.797272
25.153992
24.184296
22.665100
20.611725
18.249664
15.816833
13.446106
11.047516
8.426025
5.368530
1.841583
-2.080536
-6.176453
-10.260529
-14.228607
-18.163330
-22.248596
-26.781647
-32.036987
-38.163086
-45.004089
-51.950439
-57.952759
-61.720184
-62.094635
-58.491577
-51.113007
-40.930328
-29.310028
-17.605286
-6.757721
2.738556
10.723145
17.127777
21.855743
24.760742
25.858917
25.415497
24.025909
22.460846
21.421844
21.311951
22.094955
23.300354
24.270447
24.437012
23.629578
22.149841
20.605026
19.592896
19.343689
19.553940
19.565186
18.711884
16.687317
13.683456
10.266083
7.000107
4.136932
1.518387
-1.304840
-4.845734
-9.355469
-14.805817
-20.915039
-27.283981
-33.453461
-38.933853
-43.114807
-45.273499
-44.694443
-40.926208
-34.035278
-24.705750
-14.123215
-3.631241
5.638779
13.033066
18.356522
21.749832
23.446274
23.654221
22.613663
20.626099
18.128540
15.614166
13.560455
12.277298
11.872345
12.309814
13.406845
14.869781
16.395966
17.654556
18.402359
18.507401
17.988571
16.915283
15.410614
13.512390
11.217712
8.477142
5.254593
1.543884
-2.535675
-6.822357
-11.082031
-15.094345
-18.801926
-22.366928
-26.162888
-30.634598
-35.948410
-41.740067
-47.011459
-50.316498
-50.260574
-46.080688
-37.948715
-26.952408
-14.701935
-2.783493
7.732178
16.380730
23.187126
28.288857
31.705048
33.306175
32.933235
30.671616
27.005272
22.777985
18.940613
16.251709
15.017738
14.991188
15.561905
15.983406
15.744064
14.728119
13.247574
11.862297
11.079666
11.048759
11.444832
11.596870
10.777580
8.547760
5.023666
0.800652
-3.291382
-6.602135
-8.927338
-10.603447
-12.286140
-14.669930
-18.121365
-22.592548
-27.662376
-32.678677
-36.924839
-39.772972
-40.762707
-39.620079
-36.283108
-30.895535
-23.745441
-15.283722
-6.020267
3.413040
12.335064
20.088142
26.171528
30.397961
32.976311
34.492290
35.671516
37.198685
39.550659
42.849506
46.895462
51.208473
55.109566
57.865967
58.912685
58.021790
55.405228
51.630886
47.400024
43.275177
39.444107
35.724411
31.705765
27.052200
21.629391
15.571369
9.166569
2.737473
-3.477932
-9.349045
-14.757126
-19.623756
-23.917175
-27.694328
-31.026558
-33.931343
-36.193237
-37.277390
-36.445312
-32.998260
-26.636490
-17.701736
-7.094330
3.994812
14.541290
23.893097
31.830872
38.343857
43.417740
46.929276
48.731750
48.832443
47.457932
45.045547
42.150528
39.372437
37.359695
36.954102
39.152817
44.851456
54.304520
66.470581
78.786499
87.521851
88.888428
80.323273
61.529175
34.620911
3.358917
-28.191559
-56.939545
-81.335571
-101.233887
-117.189728
-129.802887
-139.424835
-146.276489
-150.790680
-153.658081
-155.597260
-156.910950
-157.198822
-155.440613
-150.488708
-141.651001
-129.189423
-114.281067
-98.619995
-83.853027
-71.072021
-60.641388
-52.289764
-45.436615
-39.499207
-34.139038
-29.307739
-25.184387
-21.996826
-19.791809
-18.359467
-17.191284
-15.644073
-13.241425
-9.844543
-5.768372
-1.673676
1.752136
4.039917
5.130310
5.301788
5.053101
4.827881
4.846497
5.016754
4.982635
4.229950
2.261322
-1.175995
-5.923553
-11.369446
-16.478577
-20.078705
-21.156189
-19.170074
-14.158997
-6.704346
2.305359
11.917847
21.293915
29.697723
36.516785
41.258423
43.633240
43.690918
41.854645
38.803986
35.325684
32.009094
29.196594
26.926422
25.137421
23.688019
22.510620
21.537537
20.694656
19.859116
18.863449
17.525635
15.687881
13.221725
10.107086
6.462769
2.594086
-1.122864
-4.389023
-7.192978
-9.878326
-13.050568
-17.338242
-23.035568
-29.878357
-37.048508
-43.291809
-47.339828
-48.241852
-45.677521
-39.983261
-31.995087
-22.732330
-13.117188
-3.790939
4.810150
12.367767
18.484848
22.747864
24.807281
24.636917
22.613190
19.515564
16.230316
13.498917
11.732162
10.996643
11.059692
11.632523
12.416885
13.167969
13.718979
13.933243
13.698425
12.918411
11.560257
9.639648
7.236038
4.501129
1.525101
-1.689354
-5.407776
-10.063866
-16.098610
-23.599663
-32.030350
-40.141525
-46.276848
-48.919395
-47.262108
-41.499962
-32.740623
-22.510895
-12.276184
-2.977402
5.007385
11.706879
17.179039
21.406281
24.149391
25.205101
24.529999
22.422455
19.507877
16.594093
14.415329
13.403728
13.596489
14.676044
16.145214
17.563538
18.612026
19.192032
19.255951
18.772419
17.638645
15.741814
12.992365
9.466433
5.328531
0.835714
-3.844772
-8.734780
-14.092505
-20.275570
-27.471130
-35.392544
-43.127403
-49.212837
-52.075180
-50.581444
-44.527943
-34.697365
-22.613010
-9.908852
2.097191
12.694004
21.678083
29.055595
34.810410
38.857891
41.122253
41.691193
40.897972
39.266876
37.374344
35.718204
34.613499
34.157772
34.211124
34.517487
34.728748
34.582607
33.909267
32.680931
30.883812
28.455856
25.267586
21.240631
16.446754
11.211327
6.033310
1.368042
-2.630615
-6.274620
-10.260315
-15.431709
-22.450569
-31.398163
-41.607567
-51.675224
-59.813042
-64.314522
-64.064796
-58.894684
-49.578445
-37.551003
-24.447975
-11.684814
-0.226807
9.408615
16.989082
22.466408
25.884079
27.476265
27.607620
26.848312
25.823990
25.071190
24.885101
25.309998
26.044098
26.645737
26.686188
25.949211
24.547699
22.862610
21.375580
20.355911
19.715881
19.073196
17.902374
15.875214
12.967789
9.485153
5.815964
2.226273
-1.335434
-5.166672
-9.702393
-15.336960
-22.252289
-30.285278
-38.890656
-47.127411
-53.792801
-57.599579
-57.557983
-53.206924
-44.785965
-33.222168
-19.899033
-6.256744
6.475525
17.480530
26.358932
32.976639
37.370270
39.654480
40.107178
39.197144
37.555145
35.866455
34.643768
34.149765
34.312531
34.887787
35.576385
36.185989
36.584396
36.710892
36.475418
35.763397
34.435425
32.434296
29.757919
26.447845
22.582382
18.236053
13.518082
8.568436
3.532425
-1.460846
-6.396317
-11.373169
-16.643143
-22.450378
-29.012756
-36.290115
-43.899078
-51.064041
-56.685104
-59.525742
-58.550598
-53.224335
-43.784515
-31.221146
-17.110184
-3.212906
8.913010
18.273712
24.526016
27.961243
29.229492
29.112885
28.269196
27.165527
26.079605
25.243408
24.830292
24.994751
25.767334
26.986526
28.323532
29.415115
29.962036
29.899216
29.282394
28.259750
26.911835
25.200104
23.022827
20.272293
16.904846
12.999390
8.711533
4.257462
-0.151230
-4.310989
-8.176178
-11.830994
-15.573059
-19.881073
-25.200592
-31.709763
-39.054459
-46.296967
-52.006363
-54.649048
-53.132904
-47.196609
-37.571838
-25.725281
-13.357224
-1.828629
8.109283
16.316391
22.905777
27.937592
31.248383
32.570328
31.824951
29.392776
26.081421
22.878922
20.543320
19.350800
19.016052
18.953766
18.503677
17.317139
15.394775
13.070267
10.819626
8.997467
7.637314
6.425140
4.837082
2.375320
-1.169540
-5.623154
-10.514542
-15.314636
-19.680191
-23.619286
-27.430290
-31.584587
-36.469162
-42.193039
-48.465393
-54.560059
-59.389641
-61.711380
-60.476883
-55.134666
-45.851990
-33.515007
-19.515793
-5.313797
7.814247
19.049637
27.909584
34.214478
37.956131
39.238403
38.411850
36.096306
33.148956
30.447617
28.620918
27.798492
27.575531
27.274185
26.246552
24.297058
21.733658
19.186501
17.269402
16.214508
15.770256
15.347336
14.399612
12.682594
10.344757
7.781334
5.351425
3.167625
1.004845
-1.522003
-4.796112
-9.049782
-14.311172
-20.408859
-26.981575
-33.427841
-38.912888
-42.437386
-43.074844
-40.228546
-33.868431
-24.631577
-13.616989
-2.140877
8.589188
17.679314
24.566078
29.049034
31.188499
31.261459
29.748772
27.251686
24.381287
21.622635
19.248177
17.302780
15.730598
14.449432
13.450966
12.809471
12.561417
12.632622
12.810562
12.780579
12.251488
11.073235
9.336174
7.300697
5.279850
3.445213
1.679317
-0.375168
-3.225937
-7.268097
-12.587410
-18.975983
-25.935978
-32.826294
-38.990883
-43.724377
-46.329926
-46.140415
-42.682629
-35.916653
-26.376156
-15.149693
-3.628208
6.814304
15.171284
20.950375
24.155735
25.143860
24.446592
22.667984
20.364826
17.996889
15.863880
14.103458
12.723328
11.688772
10.947994
10.536800
10.509467
10.874715
11.487800
12.001680
11.953059
10.900880
8.584455
5.113477
0.928837
-3.324420
-7.085742
-10.081861
-12.456374
-14.722692
-17.577202
-21.671066
-27.303715
-34.236679
-41.665138
-48.305511
-52.733917
-53.758854
-50.837967
-44.206745
-34.826504
-24.012276
-13.030088
-2.877025
5.845406
12.796670
17.728016
20.502527
21.189632
20.139544
17.917068
15.142859
12.270715
9.515866
6.923073
4.528525
2.453318
0.894964
-0.022567
-0.376341
-0.452264
-0.620089
-1.184774
-2.260379
-3.823567
-5.753411
-8.011118
-10.619353
-13.663320
-17.223921
-21.390022
-26.196196
-31.683266
-37.770348
-44.156605
-50.258072
-55.179871
-57.800522
-57.114845
-52.596298
-44.503014
-33.887688
-22.341345
-11.427176
-2.208383
5.019012
10.573362
14.954281
18.395836
20.752270
21.638380
20.789766
18.366772
15.029455
11.641439
8.920734
7.089565
5.920740
4.898407
3.633501
2.050129
0.481880
-0.615673
-0.870213
-0.291336
0.774364
1.714413
1.989506
1.259136
-0.505775
-3.153393
-6.479034
-10.327290
-14.588192
-19.090698
-23.446915
-27.015640
-28.986679
-28.586876
-25.316383
-19.189697
-10.747086
-0.918060
9.226135
18.713425
26.834618
33.100052
37.268188
39.167496
38.785126
36.291801
32.141296
27.040848
21.881042
17.476051
14.389275
12.752029
12.273460
12.365273
12.366791
11.731850
10.213547
7.839500
4.901146
1.781326
-1.101967
-3.516731
-5.463013
-7.198692
-9.249641
-12.251389
-16.716187
-22.755875
-29.856094
-36.889648
-42.303223
-44.576843
-42.697083
-36.555298
-26.947113
-15.301514
-3.209335
8.033249
17.707138
25.629288
31.882889
36.499817
39.358673
40.200531
38.921890
35.771545
31.426758
26.847717
22.979599
20.386047
19.081955
18.570328
18.106781
17.034134
15.057114
12.350647
9.401825
6.696991
4.441345
2.467606
0.327774
-2.469406
-6.217987
-10.953720
-16.504730
-22.669296
-29.224823
-35.865692
-42.018509
-46.821548
-49.199051
-48.177582
-43.265442
-34.720169
-23.524612
-11.152405
0.826599
11.127762
19.007553
24.299728
27.321442
28.602203
28.664047
27.885803
26.485046
24.574936
22.315796
19.973938
17.920563
16.499237
15.876572
15.949173
16.356415
16.560120
16.051163
14.521393
11.976654
8.691330
5.083603
1.517868
-1.835068
-5.064407
-8.466690
-12.483261
-17.526901
-23.841003
-31.297836
-39.279236
-46.601898
-51.778915
-53.370834
-50.499649
-43.150864
-32.214447
-19.200882
-5.756042
6.828369
17.824585
27.014679
34.435440
40.135910
44.042450
46.038452
46.147568
44.678833
42.231979
39.526489
37.162094
35.461456
34.346771
33.513412
32.601959
31.377472
29.805298
27.996429
26.052948
23.955750
21.502228
18.420746
14.489624
9.722412
4.417175
-0.876984
-5.668457
-9.753784
-13.427673
-17.408112
-22.543610
-29.244781
-37.151825
-44.997803
-51.001343
-53.421082
-51.265167
-44.568024
-34.389862
-22.294952
-9.822205
1.933685
12.415222
21.421021
28.794647
34.286194
37.563812
38.448120
37.154572
34.376236
31.116959
28.446365
27.099106
27.298172
28.675827
30.513550
32.009674
32.669708
32.411621
31.557770
30.536942
29.626541
28.691788
27.279785
24.848358
21.080338
16.069534
10.306732
4.420746
-1.039551
-5.908661
-10.377014
-14.966095
-20.295975
-26.852158
-34.785690
-43.722931
-52.769516
-60.661270
-66.076782
-67.963837
-65.787003
-59.584412
-49.892075
-37.606995
-23.793716
-9.608841
3.871841
15.720200
25.317978
32.416641
37.108887
39.713272
40.661652
40.407974
39.413254
38.151627
37.073227
36.533340
36.675873
37.354141
38.228333
38.853180
38.882812
38.127396
36.609558
34.443420
31.770538
28.660797
25.144455
21.244080
17.034927
12.645874
8.211853
3.798691
-0.619202
-5.161285
-9.968399
-15.104965
-20.450638
-25.737823
-30.617859
-34.922775
-38.790665
-42.707153
-47.215927
-52.618637
-58.488907
-63.727295
-66.772400
-66.175766
-61.165863
-51.951599
-39.617973
-25.690132
-11.640839
1.458298
13.016624
22.742180
30.466408
35.940590
38.947983
39.417313
37.651611
34.371109
30.579033
27.239265
24.984146
23.895241
23.552048
23.225647
22.257278
20.305611
17.424141
13.997520
10.489822
7.258308
4.405922
1.812630
-0.779663
-3.584923
-6.677429
-9.954765
-13.154030
-16.009445
-18.371788
-20.268227
-21.917801
-23.580986
-25.437622
-27.534149
-29.765633
-32.062225
-34.548492
-37.557610
-41.533691
-46.715004
-52.761009
-58.642883
-62.759331
-63.457428
-59.562004
-50.929604
-38.487503
-23.917767
-9.111359
4.409538
15.834885
24.993942
32.098557
37.435032
41.099178
43.056602
43.286919
41.987194
39.710617
37.241421
35.439671
34.876862
35.649113
37.309872
39.079990
40.179829
40.136055
38.965965
37.088783
35.080318
33.415478
32.242096
31.365833
30.339233
28.687916
26.052048
22.374660
17.917387
13.138422
8.518225
4.330925
0.527311
-3.161980
-7.099541
-11.556223
-16.561512
-22.004128
-27.749672
-33.684433
-39.656109
-45.235523
-49.690613
-52.008884
-51.278725
-47.029045
-39.505779
-29.678291
-18.937670
-8.681162
0.001546
6.530824
10.815304
13.111778
13.858671
13.532400
12.536743
11.197802
9.731264
8.310154
7.103771
6.310070
6.070797
6.416798
7.209820
8.145489
8.835213
8.897873
8.106380
6.426052
3.999535
1.062382
-2.220268
-5.810661
-9.846722
-14.530281
-19.981819
-26.062420
-32.393562
-38.412010
-43.650845
-47.914921
-51.415504
-54.639755
-58.134975
-62.124294
-66.337273
-69.953674
-71.861633
-71.004547
-66.803207
-59.378078
-49.515747
-38.351299
-26.977695
-16.162182
-6.268051
2.585560
10.315006
16.672558
21.340744
24.140610
25.188560
24.985977
24.236635
23.592453
23.377594
23.545961
23.751081
23.620001
22.907856
21.635054
20.022827
18.360386
16.850561
15.540163
14.297132
12.882458
11.068892
8.748894
5.976948
2.970460
-0.013476
-2.790007
-5.385179
-8.034703
-11.158016
-15.184566
-20.286911
-26.239876
-32.260437
-37.199684
-39.835403
-39.255810
-35.181564
-28.048599
-18.867107
-8.849892
0.897596
9.596155
16.833967
22.421471
26.262760
28.313541
28.595200
27.342754
25.024952
22.298706
19.846279
18.143265
17.306320
17.090618
17.003902
16.580818
15.597187
14.149414
12.568718
11.235687
10.322205
9.742348
9.156696
8.146553
6.401733
3.873817
0.738708
-2.661331
-5.999466
-9.084480
-11.974098
-14.904434
-18.147812
-21.822472
-25.681175
-29.046165
-30.979156
-30.544044
-27.236328
-21.179794
-13.143898
-4.249100
4.388565
12.002686
18.257217
23.189400
26.907387
29.431465
30.632172
30.309769
28.445084
25.352570
21.695412
18.317299
15.955864
14.959816
15.125839
15.831230
16.291679
15.914986
14.533257
12.407921
10.043396
7.837875
5.924614
4.120247
2.105949
-0.272476
-2.965660
-5.683098
-8.173012
-10.429031
-12.796066
-15.809906
-19.895142
-24.961075
-30.296669
-34.680573
-36.776817
-35.635048
-31.010101
-23.431038
-13.990990
-3.969025
5.503616
13.673676
20.177376
24.976021
28.170670
29.947952
30.431854
29.750732
28.012474
25.386826
22.114426
18.549500
15.121544
12.212227
9.994469
8.405319
7.115280
5.715767
3.912781
1.682449
-0.658844
-2.629379
-3.920929
-4.513290
-4.798889
-5.440475
-7.129089
-10.352203
-15.269180
-21.607269
-28.743347
-35.804230
-41.830399
-45.819977
-46.914444
-44.599915
-38.904968
-30.442978
-20.160538
-9.179657
1.408905
10.753586
18.298111
23.780609
27.158890
28.570908
28.271896
26.949158
25.340118
23.862091
22.486099
20.907272
18.851379
16.345490
13.690414
11.295502
10.102921
10.673065
12.633163
14.733536
15.507523
14.144867
10.791504
6.342392
1.843658
-0.980057
-1.229568
0.566345
2.412933
2.033417
-1.855576
-8.932938
-17.423569
-24.543930
-25.607513
-16.212372
5.873383
39.490479
80.354706
122.576569
160.434341
189.965027
201.172073
188.934723
156.041168
112.740028
70.352287
35.277855
8.380096
-11.986671
-27.417793
-38.645401
-44.698593
-45.148628
-41.244415
-35.743286
-31.518898
-30.005112
-30.909752
-32.826523
-34.391273
-33.848671
-30.489166
-25.035828
-19.439278
-15.656681
-14.646118
-16.029133
-18.726173
-21.844105
-24.349270
-26.001144
-27.498631
-30.130455
-35.009743
-42.596592
-52.173134
-62.262329
-70.930870
-75.873375
-75.196907
-68.092789
-55.261856
-38.828957
-21.698696
-6.660159
4.321569
10.573766
12.780730
12.334517
10.686474
8.841566
7.340374
6.423230
6.303975
7.179398
9.083694
11.716108
14.401145
16.350857
16.992290
16.067142
13.794016
10.724697
7.407204
4.185417
1.439379
-0.855654
-3.002863
-5.409594
-8.421293
-12.216927
-16.869171
-22.414005
-28.934629
-36.425781
-44.627022
-52.708954
-59.272640
-62.599373
-61.156231
-54.275669
-42.445557
-27.245237
-10.845987
4.682596
17.931417
28.334616
35.987900
41.213783
44.221207
45.045155
43.743656
40.644173
36.433361
32.103729
28.647705
26.665640
26.144848
26.463633
26.697216
25.998917
23.960579
20.740667
16.971752
13.397398
10.543900
8.506607
6.915016
5.142670
2.608387
-0.955250
-5.436716
-10.362118
-15.187798
-19.559193
-23.508327
-27.573788
-32.608120
-39.306576
-47.772762
-57.106773
-65.506912
-70.765488
-71.102798
-65.863953
-55.746231
-42.493324
-28.138519
-14.250553
-1.563183
9.863621
20.122150
28.975353
35.727779
39.492363
39.801189
37.009346
32.376640
27.622364
24.303116
23.165764
23.951130
25.648026
27.064915
27.456326
26.811848
25.716923
24.956211
24.993023
25.660732
26.238762
25.835602
23.773331
19.977055
14.956810
9.600910
4.792267
1.041637
-1.624897
-3.720661
-6.122154
-9.764782
-15.361511
-23.065617
-32.263897
-41.593983
-49.219707
-53.370644
-52.923290
-47.782757
-38.923576
-27.961834
-16.541889
-5.817329
3.691326
11.884758
18.715939
23.947361
27.247574
28.465199
27.927132
26.485546
25.138542
24.666500
25.193367
26.186989
26.806747
26.420555
24.951317
22.933380
21.181480
20.319733
20.404778
20.851379
20.751175
19.295067
16.167274
11.663979
6.524506
1.572067
-2.707153
-6.276558
-9.598129
-13.341087
-18.153580
-24.348938
-31.837616
-40.056709
-48.079323
-54.761040
-58.933563
-59.659286
-56.464584
-49.448486
-39.278168
-27.023491
-13.930450
-1.201111
10.155121
19.371803
25.994820
29.869354
31.249069
30.776672
29.404243
28.115952
27.577301
27.946655
28.773933
29.338425
28.957245
27.408554
24.968803
22.297234
20.028122
18.440216
17.297394
16.009216
13.894859
10.576889
6.099152
0.849678
-4.645622
-9.964668
-14.958519
-19.764610
-24.695007
-30.058922
-36.130905
-42.870285
-49.934059
-56.584396
-61.792984
-64.436295
-63.631645
-58.981628
-50.785187
-39.895409
-27.519379
-14.860542
-2.957596
7.414597
15.623146
21.152130
23.681099
23.270859
20.469780
16.328072
12.078667
8.791634
6.962456
6.503677
6.878571
7.452553
7.830269
7.928322
7.894577
7.885391
7.897125
7.709869
6.969955
5.407944
2.986313
0.003105
-3.025261
-5.520775
-7.153801
-7.983818
-8.538628
-9.638344
-12.061188
-16.208153
-21.826202
-27.937317
-33.118523
-35.899612
-35.286476
-31.138771
-24.192841
-15.803162
-7.369164
0.094009
6.201706
11.075943
14.937881
17.809082
19.405457
19.334099
17.446869
14.096382
10.097168
6.427979
3.842529
2.571259
2.287392
2.358498
2.174538
1.449104
0.278534
-0.951416
-1.847160
-2.287163
-2.530388
-3.135353
-4.724800
-7.684517
-11.956207
-17.023003
-22.143890
-26.698929
-30.481140
-33.828812
-37.412621
-41.765640
-46.842842
-51.743954
-54.918819
-54.722969
-50.138168
-41.250191
-29.307098
-16.198719
-3.778767
6.751068
15.010384
21.243267
25.872330
29.145836
31.040279
31.390751
30.107800
27.351700
23.561739
19.379696
15.451840
12.309642
10.192586
8.984630
8.270810
7.498046
6.219437
4.272887
1.836967
-0.706428
-2.996721
-4.860949
-6.406809
-7.906841
-9.749804
-12.224497
-15.531841
-19.708225
-24.636703
-30.010204
-35.277088
-39.653606
-42.283638
-42.391758
-39.506447
-33.594700
-25.099392
-14.826439
-3.790741
6.996376
16.639404
24.474754
30.095284
33.334785
34.288040
33.291153
30.895012
27.781761
24.620232
21.885025
19.717506
17.941956
16.175423
14.073456
11.516518
8.722458
6.099174
4.042755
2.634460
1.639664
0.590561
-0.986862
-3.346649
-6.471298
-10.248718
-14.649170
-19.929047
-26.462601
-34.433609
-43.472427
-52.441757
-59.582611
-63.090332
-61.753815
-55.447098
-45.166916
-32.593079
-19.488708
-7.140732
3.868591
13.410538
21.504379
27.942139
32.316162
34.215118
33.562927
30.835251
26.993896
23.227692
20.552979
19.440765
19.677734
20.525299
20.964508
20.199707
17.967133
14.589447
10.887604
7.766754
5.852509
5.257904
5.561157
5.933167
5.411438
3.124908
-1.480347
-8.399261
-16.987793
-25.959747
-33.671448
-38.538116
-39.492157
-36.245911
-29.313934
-19.724182
-8.685425
2.736176
13.693176
23.517487
31.688293
37.785980
41.622833
43.308807
43.226654
41.967285
40.127808
38.183441
36.428101
34.910736
33.553650
32.240112
30.938324
29.778381
28.992828
28.826782
29.351654
30.374054
31.380920
31.736237
30.877960
28.544647
24.856598
20.205933
14.960175
9.245026
2.893616
-4.332275
-12.403809
-20.626709
-27.694000
-31.968689
-32.132294
-27.711243
-19.343536
-8.505493
3.005737
13.712433
22.864410
30.377319
36.543915
41.574677
45.424957
47.722076
48.044739
46.208832
42.492615
37.630798
32.627472
28.452423
25.739563
24.657288
24.898560
25.883606
26.973236
27.676788
27.748138
27.122040
25.810638
23.785614
20.978363
17.283020
12.679016
7.313782
1.458221
-4.541473
-10.464355
-16.345795
-22.541656
-29.533295
-37.467133
-45.800629
-53.060028
-57.201385
-56.334229
-49.543610
-37.414398
-21.894165
-5.601379
9.139008
21.035034
29.954712
36.553436
41.633057
45.615326
48.400726
49.628540
49.013580
46.691620
43.258179
39.601746
36.541565
34.552521
33.563019
33.088745
32.477142
31.219543
29.165985
26.511841
23.632599
20.875336
18.351959
15.946686
13.317688
10.087585
5.996368
0.979675
-4.815948
-11.084259
-17.507233
-23.893860
-30.300812
-37.030853
-44.479553
-52.809296
-61.650238
-69.915131
-75.991089
-78.122437
-75.120392
-66.823761
-54.264465
-39.320038
-24.060883
-10.041931
2.090698
12.484161
21.585388
29.619202
36.245514
40.762085
42.516510
41.410095
38.069641
33.754608
29.831299
27.354065
26.674866
27.497345
29.034058
30.367859
30.805573
30.054016
28.282501
26.014847
23.832703
22.124084
20.854797
19.591461
17.701172
14.687378
10.420181
5.211319
-0.415100
-5.981644
-11.281296
-16.364975
-21.423645
-26.565659
-31.735886
-36.786057
-41.648132
-46.468094
-51.486679
-56.808533
-62.180847
-66.816986
-69.542877
-69.106705
-64.585602
-55.695923
-42.985275
-27.727646
-11.623672
3.593811
16.590195
26.661697
33.770996
38.337662
40.950195
42.118942
42.147339
41.210709
39.511444
37.404999
35.391342
33.980820
33.476852
33.879807
34.821838
35.742027
36.122391
35.671570
34.474030
32.892723
31.409019
30.369682
29.779305
29.291824
28.305626
26.237396
22.763031
17.998878
12.428757
6.719704
1.423637
-3.216026
-7.354080
-11.373116
-15.590755
-20.069664
-24.539371
-28.542049
-31.736191
-34.186073
-36.474346
-39.566681
-44.433285
-51.625648
-60.837784
-70.795387
-79.498344
-84.787460
-85.012726
-79.595688
-69.166786
-55.293434
-39.915337
-24.684250
-10.664160
1.739808
12.498203
21.593695
28.843845
33.969429
36.782860
37.445240
36.515305
34.861790
33.313122
32.420128
32.296749
32.636810
32.987064
33.007874
32.627758
32.050312
31.547428
31.299431
31.220654
31.001232
30.256008
28.723778
26.378967
23.431297
20.177284
16.835663
13.388420
9.618637
5.195961
-0.054459
-6.018326
-12.231682
-18.021004
-22.766571
-26.261848
-28.821693
-31.294495
-34.721222
-39.911240
-46.949554
-55.046394
-62.603363
-67.757576
-68.951675
-65.491966
-57.744499
-46.942078
-34.682297
-22.404221
-11.031830
-0.949860
7.767929
15.035126
20.611191
24.149460
25.437561
24.621246
22.404510
19.823532
18.034698
17.805038
19.266830
21.860733
24.585480
26.399933
26.660019
25.274414
22.670181
19.551987
16.545868
13.965897
11.758377
9.578934
7.055496
3.942993
0.270782
-3.737396
-7.795975
-11.772034
-15.742142
-19.949921
-24.585526
-29.674637
-35.022690
-40.365509
-45.609848
-50.938065
-56.691086
-63.090591
-69.834076
-76.010193
-80.221786
-81.075485
-77.680298
-70.107986
-59.377670
-47.140961
-35.109161
-24.543243
-15.970093
-9.232407
-3.819092
0.717865
4.538239
7.460800
9.245529
9.806305
9.442902
8.792114
8.642014
9.613724
11.928879
15.260727
18.907471
21.999573
23.884155
24.335846
23.641068
22.367737
21.100098
20.077896
19.078735
17.555359
14.903870
10.814255
5.467346
-0.582474
-6.640289
-12.180618
-16.985580
-21.218262
-25.228485
-29.398727
-33.952805
-38.876907
-43.898575
-48.522064
-52.098160
-53.905182
-53.327332
-49.972626
-43.820190
-35.281403
-25.110001
-14.245148
-3.624435
5.988190
14.038803
20.189224
24.313904
26.465347
26.922974
26.112595
24.545914
22.694260
20.866974
19.188080
17.672035
16.319412
15.230255
14.567589
14.506882
15.091301
16.179718
17.467247
18.571678
19.152565
19.012161
18.085663
16.393013
13.957542
10.776855
6.814476
2.063705
-3.371391
-9.182213
-14.923294
-20.101295
-24.439369
-27.983406
-31.127075
-34.383163
-38.040466
-41.849495
-44.934036
-46.090702
-44.238045
-38.885086
-30.342854
-19.615162
-8.077873
2.978062
12.606537
20.306568
25.982700
29.784767
31.973492
32.873821
32.688492
31.591206
29.716484
27.273348
24.609255
22.150229
20.280882
19.176113
18.669279
18.367886
17.881283
17.067680
16.106537
15.371407
15.160965
15.421864
15.663260
15.117280
13.056228
9.177351
3.775376
-2.375893
-8.323595
-13.366756
-17.323280
-20.583607
-23.839993
-27.754120
-32.596626
-38.110840
-43.510559
-47.710430
-49.618584
-48.459240
-44.022339
-36.749737
-27.564896
-17.627014
-7.880993
1.186363
9.537323
17.397686
24.866123
31.704582
37.377476
41.312897
43.221409
43.322239
42.240631
40.825470
39.753593
39.344856
39.496643
39.797470
39.781631
39.115662
37.794586
36.137573
34.648857
33.785957
33.730507
34.243195
34.781967
34.707962
33.557709
31.178139
27.637665
23.050247
17.419525
10.689018
2.944031
-5.316833
-13.187813
-19.524910
-23.429382
-24.647789
-23.684326
-21.619919
-19.649414
-18.575081
-18.629425
-19.463173
-20.483055
-21.155136
-21.298759
-21.113823
-21.096954
-21.719902
-23.206039
-25.211662
-26.879326
-27.009857
-24.532028
-18.972237
-10.741936
-1.079933
8.324364
15.898926
20.643112
22.349174
21.468338
18.807556
15.131393
10.942497
6.390526
1.365196
-4.349098
-10.937248
-18.421318
-26.536552
-34.709869
-42.038467
-47.458549
-49.979813
-48.931419
-44.172935
-36.162544
-25.804665
-14.239769
-2.566391
8.238617
17.407387
24.345268
28.684441
30.335228
29.623657
27.187347
23.859100
20.436920
17.455811
15.099449
13.282722
11.735909
10.234970
8.662384
7.053497
5.485825
3.995758
2.465652
0.685806
-1.570755
-4.371063
-7.546631
-10.749512
-13.647537
-16.179184
-18.702072
-21.864929
-26.298294
-32.131516
-38.803864
-45.047974
-49.319870
-50.247849
-47.144989
-40.109360
-29.994095
-18.016220
-5.426437
6.754105
17.837494
27.418350
35.204468
40.997375
44.674637
46.267822
46.050705
44.540207
42.366882
40.157593
38.352448
37.154861
36.544586
36.304977
36.103989
35.629517
34.637375
33.039032
30.934814
28.539062
26.039856
23.503845
20.746429
17.502151
13.463181
8.508896
2.641739
-4.055420
-11.545090
-19.799133
-28.618896
-37.371155
-44.902786
-49.675705
-50.245178
-45.799301
-36.548096
-23.747116
-9.301407
4.830170
17.137222
26.892914
34.067520
39.064941
42.348312
44.241272
44.834335
44.113480
42.102005
39.000580
35.213318
31.274918
27.690842
24.859085
22.898071
21.649643
20.767075
19.843384
18.574738
16.861740
14.798447
12.567444
10.261261
7.806107
4.959595
1.426666
-2.999878
-8.307800
-14.315750
-20.798782
-27.697220
-35.095398
-43.166916
-51.824402
-60.474152
-67.910675
-72.497131
-72.671509
-67.565216
-57.369766
-43.420837
-27.770981
-12.504120
0.922073
11.914963
20.683868
27.728470
33.446075
37.864899
40.684753
41.609055
40.612183
38.121994
34.945435
31.993317
29.992996
29.173477
29.351730
30.003464
30.558533
30.684845
30.393616
29.883652
29.315643
28.491806
26.859665
23.754440
18.788010
12.166367
4.737244
-2.377335
-8.245972
-12.574799
-15.755020
-18.726379
-22.514755
-27.888641
-35.068878
-43.626297
-52.471436
-60.089340
-64.822342
-65.370010
-61.169373
-52.607941
-40.847885
-27.466660
-13.897110
-1.210297
10.008148
19.446686
26.958054
32.362701
35.635712
36.946785
36.730370
35.636093
34.347969
33.375175
32.954903
32.973648
33.131020
33.050499
32.520096
31.544701
30.382660
29.323944
28.591789
28.135292
27.632988
26.588707
24.547409
21.248459
16.756424
11.425056
5.792831
0.297958
-4.772804
-9.439072
-13.940468
-18.599426
-23.721428
-29.525993
-36.148331
-43.601852
-51.642273
-59.638962
-66.501534
-70.832344
-71.236359
-66.844208
-57.648354
-44.638039
-29.472267
-14.037266
0.104408
11.995670
21.317989
28.177383
32.869759
35.670399
36.814518
36.585930
35.359829
33.663219
32.088718
31.092911
30.898956
31.355221
32.029446
32.346497
31.820045
30.208927
27.652437
24.576281
21.562738
19.050362
17.154726
15.564573
13.720433
11.003439
7.116196
2.195096
-3.199877
-8.393385
-12.834652
-16.397192
-19.335829
-22.187689
-25.580124
-30.064537
-35.907833
-43.044830
-50.926025
-58.502716
-64.357643
-67.072975
-65.619179
-59.742111
-50.033222
-37.733269
-24.291601
-11.016129
1.157127
11.594717
19.807848
25.396214
28.180847
28.335754
26.555099
23.865005
21.351826
19.757179
19.288280
19.620457
20.172543
20.364052
19.899521
18.782837
17.304562
15.836506
14.694927
13.999680
13.658253
13.392315
12.848228
11.707474
9.773426
6.944752
3.190823
-1.451515
-6.841988
-12.736118
-18.694695
-24.239418
-29.037346
-33.079475
-36.773361
-40.794342
-45.740501
-51.760284
-58.223915
-63.780174
-66.712730
-65.564301
-59.701668
-49.625130
-36.781868
-23.048103
-10.114853
0.974060
9.878281
16.691742
21.623558
24.732094
26.001289
25.464661
23.424797
20.473114
17.356934
14.704002
12.841087
11.763824
11.208275
10.808502
10.287842
9.561935
8.748413
8.023300
7.541809
7.258209
6.888374
5.981400
4.079842
0.903023
-3.502563
-8.809731
-14.510265
-20.152336
-25.441341
-30.360397
-35.139709
-40.155926
-45.739647
-51.962540
-58.471859
-64.443146
-68.691971
-70.017296
-67.599754
-61.338284
-51.852215
-40.305412
-28.019257
-16.106968
-5.302946
3.953276
11.385736
16.725838
19.815334
20.672407
19.721367
17.692753
15.483304
13.813506
13.022770
12.985611
13.321221
13.663972
13.867029
14.023094
14.291781
14.733527
15.176124
15.235123
14.573027
12.984657
10.569761
7.614178
4.542587
1.687187
-0.768948
-2.876614
-4.915047
-7.375889
-10.826103
-15.650166
-21.779144
-28.478661
-34.429558
-38.055916
-38.084846
-34.048409
-26.413322
-16.452187
-5.658264
4.712646
13.938118
21.771713
28.213348
33.184402
36.465622
37.763596
36.951057
34.253014
30.254433
25.727081
21.337021
17.423233
13.962868
10.731979
7.569763
4.550491
1.966141
0.101883
-1.017014
-1.776443
-2.785645
-4.609528
-7.453369
-11.107819
-15.073975
-18.892776
-22.372437
-25.698502
-29.275024
-33.537231
-38.724457
-44.662155
-50.744034
-56.001205
-59.191116
-59.282867
-55.646439
-48.321823
-38.042328
-25.982025
-13.352173
-1.039185
10.535355
21.287186
31.136948
39.776764
46.626526
51.000839
52.513336
51.354279
48.321487
44.528580
41.033279
38.455673
36.894012
36.014038
35.418701
34.803528
34.119171
33.472992
32.998810
32.740509
32.620422
32.517151
32.329620
31.906616
31.088165
29.581482
26.976196
22.850525
16.928162
9.269043
0.434845
-8.513672
-16.159851
-21.022522
-22.027191
-18.797119
-11.792786
-2.223541
8.362000
18.516876
27.257874
34.114105
39.106140
42.319763
43.855133
43.657166
41.781250
38.477478
34.295410
30.012085
26.459198
24.255341
23.580017
24.117096
25.112701
25.674438
25.091064
23.059723
19.803802
15.859833
11.821716
8.015198
4.438995
0.842865
-3.070374
-7.405548
-12.085205
-16.990051
-22.123718
-27.699341
-33.926697
-40.700256
-47.332855
-52.573425
-54.803131
-52.731049
-45.867340
-34.874969
-21.390350
-7.486481
5.064484
15.237274
22.881165
28.424713
32.437653
35.245880
36.919586
37.351501
36.476074
34.440094
31.557648
28.222748
24.855286
21.906067
19.935608
19.499878
20.858917
23.643387
26.767487
28.678055
28.022583
24.239868
17.868210
10.264847
2.976227
-3.024582
-7.642303
-11.562210
-15.761765
-20.966705
-27.399109
-34.826859
-42.783600
-50.745529
-58.104187
-64.075974
-67.593002
-67.634720
-63.370789
-54.662415
-42.188065
-27.442978
-12.320374
1.457596
12.770248
21.310272
27.483292
32.050476
35.640579
38.513123
40.504196
41.241394
40.478516
38.337616
35.369461
32.363037
30.041153
28.732925
28.321213
28.324936
28.177979
27.497208
26.205658
24.463333
22.479797
20.346741
17.937302
14.937744
11.086777
6.236420
0.578812
-5.551025
-11.674408
-17.505569
-23.073059
-28.697906
-34.836853
-41.714172
-49.019287
-55.789505
-60.653122
-62.316132
-59.959137
-53.565918
-43.827866
-31.887726
-19.002457
-6.295410
5.385834
15.508392
23.824371
30.293976
34.917480
37.600876
38.230919
36.745949
33.401588
28.912575
24.354630
20.844826
19.090431
19.125885
20.306984
21.633476
22.213936
21.599487
19.872116
17.510025
15.043549
12.748505
10.528618
7.953903
4.571640
0.092598
-5.273201
-10.998650
-16.428925
-21.140961
-25.124146
-28.708328
-32.391167
-36.611969
-41.627647
-47.449547
-53.769493
-59.924950
-64.896667
-67.484772
-66.626625
-61.847847
-53.473801
-42.598457
-30.650475
-18.949966
-8.317734
0.932755
8.766891
15.178223
20.055275
23.235016
24.719082
24.721741
23.750221
22.395462
21.216785
20.539658
20.437935
20.688480
20.983753
21.045151
20.725616
20.104351
19.378765
18.761768
18.301640
17.879730
17.220402
16.034847
14.157681
11.567940
8.392982
4.808647
1.008755
-2.856976
-6.642494
-10.278252
-13.742252
-17.118286
-20.580254
-24.404892
-28.824165
-33.919090
-39.396610
-44.509392
-48.098343
-48.889755
-45.949627
-39.119419
-29.102444
-17.323406
-5.398132
5.405499
14.445679
21.662189
27.260151
31.372822
33.951447
34.823265
33.970459
31.672344
28.577732
25.460503
22.993879
21.508669
20.941889
20.887722
20.835508
20.395206
19.418406
18.018154
16.459400
14.910381
13.365276
11.616425
9.424303
6.666517
3.444044
0.062122
-3.111820
-5.839041
-8.085562
-9.989959
-11.814692
-13.868900
-16.428730
-19.746559
-23.947941
-28.972355
-34.452271
-39.713799
-43.870296
-46.012596
-45.477928
-42.038986
-35.944878
-27.846722
-18.573759
-8.993855
0.104957
8.042341
14.252203
18.351835
20.193743
19.951712
18.127234
15.434706
12.640629
10.359287
8.935287
8.421989
8.666897
9.438999
10.520803
11.746518
12.975967
14.046321
14.810074
15.070621
14.680860
13.530185
11.638833
9.142408
6.317704
3.473638
0.919673
-1.209055
-2.992943
-4.709564
-6.734117
-9.430890
-13.018411
-17.519117
-22.771626
-28.468925
-34.073269
-38.899418
-42.084202
-42.803055
-40.459541
-34.947384
-26.732220
-16.754871
-6.140993
4.042637
13.027365
20.411669
26.061939
30.000219
32.321747
33.173576
32.761452
31.342607
29.284838
26.951441
24.742382
22.973589
21.831202
21.368000
21.459185
21.827101
22.151581
22.167154
21.753916
20.935167
19.828365
18.491695
16.877235
14.768677
11.949451
8.283432
3.889614
-0.906647
-5.680870
-10.161274
-14.345730
-18.460251
-22.825977
-27.489170
-32.055958
-35.709419
-37.409885
-36.305447
-32.014530
-24.885971
-15.849300
-6.187763
2.894138
10.541710
16.390602
20.460514
22.965576
24.101967
23.930740
22.493217
19.919533
16.503128
12.745056
9.181854
6.270454
4.279915
3.276787
3.093987
3.382957
3.636581
3.356331
2.231781
0.256493
-2.224907
-4.728043
-6.883308
-8.656242
-10.365005
-12.448242
-15.249496
-18.797798
-22.983788
-27.652527
-32.751503
-38.266899
-44.016792
-49.407326
-53.474312
-55.104805
-53.379692
-47.941750
-39.168510
-28.061592
-16.027016
-4.484222
5.411613
13.020538
18.234520
21.397308
23.056107
23.745148
23.783424
23.254585
22.099625
20.295288
17.948158
15.348747
12.890831
10.961067
9.775749
9.343124
9.440910
9.727974
9.818604
9.385826
8.242683
6.349762
3.820351
0.843712
-2.407440
-5.848633
-9.563148
-13.694405
-18.416336
-23.834938
-29.928284
-36.516029
-43.252975
-49.543022
-54.613129
-57.486870
-57.246262
-53.276428
-45.589699
-34.920914
-22.648651
-10.384453
0.434547
8.869324
14.659424
18.069908
19.668068
20.066750
19.737503
18.981354
17.876854
16.466492
14.771233
12.887672
11.000549
9.355072
8.111641
7.301125
6.678795
5.865593
4.512402
2.509968
0.057541
-2.405533
-4.470882
-6.015377
-7.282692
-8.780804
-11.048447
-14.391693
-18.869011
-24.294575
-30.438690
-37.040039
-43.766247
-50.070244
-55.095047
-57.790123
-57.119385
-52.466850
-43.918133
-32.333820
-19.217983
-6.258783
5.116469
14.097630
20.516275
24.729069
27.275871
28.607605
28.990677
28.607149
27.612032
26.265097
24.843060
23.595848
22.673944
22.184820
22.154196
22.593822
23.419258
24.451397
25.361584
25.852882
25.736355
25.008419
23.742954
22.000641
19.719437
16.795383
13.095901
8.663635
3.671616
-1.688164
-7.288666
-13.073944
-18.976814
-24.689674
-29.625458
-32.918320
-33.698120
-31.400520
-26.018341
-18.097481
-8.628586
1.284492
10.665916
18.846458
25.408852
30.195992
33.131363
34.277977
33.821335
32.137344
29.672913
26.904861
24.179291
21.734520
19.646866
17.930374
16.550705
15.451805
14.462120
13.359306
11.931870
10.042015
7.727104
5.158371
2.505127
-0.102837
-2.692162
-5.403442
-8.437279
-12.003922
-16.323463
-21.521179
-27.585663
-34.217239
-40.761337
-46.210281
-49.452225
-49.543716
-45.999023
-38.986267
-29.303986
-18.168549
-6.916794
3.267578
11.540161
17.529938
21.199753
22.776947
22.695724
21.656906
20.515289
20.145447
21.046326
22.991776
24.996002
25.775284
24.445480
21.226974
17.378876
14.535278
13.761719
14.825516
16.301987
16.431320
14.249893
10.175415
5.625122
2.158340
0.461655
0.035706
-0.495987
-2.543564
-6.951767
-13.629089
-21.714462
-29.856979
-36.574463
-40.322189
-39.759583
-34.081284
-23.474152
-9.231369
6.349533
20.698425
31.835632
38.970032
42.427216
43.301987
42.595795
41.089020
39.176971
37.238937
35.779953
35.369125
36.194458
37.810242
39.214233
39.279068
37.401703
33.714722
28.958176
24.026031
19.430557
15.230087
11.149521
6.969009
2.713959
-1.309326
-4.843246
-7.829880
-10.538574
-13.418015
-16.965866
-21.470169
-27.003357
-33.375244
-40.092545
-46.363571
-51.252319
-53.700195
-52.955856
-48.655319
-41.053543
-30.921753
-19.347397
-7.428787
3.818726
13.709335
21.692047
27.469696
30.890060
31.985626
31.029053
28.519043
25.153702
21.743652
19.082443
17.723038
17.793335
18.962357
20.453339
21.440475
21.262573
19.715927
17.068558
13.831573
10.476959
7.328064
4.448349
1.760452
-0.931717
-3.882324
-7.498230
-12.152710
-18.051880
-25.133957
-32.984634
-41.014526
-48.712708
-55.463043
-60.669418
-63.416229
-62.712814
-57.893066
-49.204834
-37.901901
-25.928024
-15.069885
-6.272888
0.523376
5.954025
10.505295
14.021057
15.830765
15.281876
12.309448
7.647888
2.492157
-2.147949
-5.786392
-8.667480
-11.360565
-14.488251
-18.326294
-22.953674
-28.291077
-34.330002
-41.220642
-49.190201
-58.420197
-68.958817
-80.536407
-92.704987
-105.060196
-117.423462
-129.986816
-143.262939
-157.826569
-174.092194
-192.095520
-211.394745
-230.994568
-249.590973
-265.672302
-277.933929
-285.503876
-288.137115
-286.110870
-279.898254
-269.812531
-255.736633
-237.259827
-214.054901
-186.401855
-155.639954
-124.025330
-94.277405
-68.721985
-48.647949
-33.931396
-23.251343
-14.511353
-5.638733
4.876343
17.621033
32.274048
47.780334
62.658936
75.364929
84.607056
89.776062
91.068970
89.465454
86.468506
83.615906
82.264893
83.568848
88.551025
98.048706
112.535522
131.727173
154.437256
178.814209
202.880737
225.137817
244.993286
262.528320
278.112793
291.877075
303.572144
312.776733
319.340698
323.598877
326.301880
328.287964
330.105225
331.815918
333.161377
333.736450
333.295166
331.851196
329.610352
326.812622
323.479614
319.348877
313.932251
306.764771
297.540161
286.254883
273.152710
258.502441
242.583496
225.610596
207.825562
189.533447
171.086182
152.777954
134.798706
117.195923
99.997803
83.318848
67.429565
52.680054
39.394043
27.655762
17.235352
7.458008
-2.690369
-14.390808
-28.551392
-45.407043
-64.142639
-82.905212
-99.239990
-110.923950
-116.711060
-116.683411
-112.012329
-104.270386
-94.729248
-84.018311
-72.324036
-59.899292
-47.512512
-36.514221
-28.450317
-24.530426
-25.263916
-30.317688
-38.786530
-49.593140
-61.729980
-74.422638
-87.025757
-98.886230
-109.099365
-116.506378
-119.732727
-117.586624
-109.361465
-95.247269
-76.411209
-54.799011
-32.689377
-12.205048
5.049217
18.099663
26.601952
30.812817
31.618095
30.511433
29.186403
28.860912
29.529560
29.577835
26.130623
16.157646
-2.074112
-27.917023
-58.259552
-88.382874
-113.524277
-130.322861
-137.524078
-135.794800
-126.980972
-113.299713
-96.877899
-79.732452
-63.771149
-50.757141
-41.890045
-37.275848
-35.753723
-35.084045
-32.718018
-26.695892
-16.372803
-2.545349
12.877319
27.522614
39.278534
46.887268
50.182129
50.066833
48.039490
45.135742
41.739197
37.284546
30.237610
18.381592
-0.221863
-26.080078
-57.582336
-91.052246
-122.036194
-146.245911
-160.711182
-164.758789
-160.186584
-150.456543
-139.118042
-128.582764
-119.561890
-112.323303
-106.411621
-100.920593
-95.104736
-88.776123
-82.130859
-75.279785
-68.149048
-60.697754
-55.530579
-54.402893
-56.644165
-59.672424
-61.044067
-59.472778
-54.764587
-47.466125
-38.531189
-33.966003
-37.461609
-47.701538
-60.019897
-70.704224
-78.631226
-84.302734
-88.596619
-92.164185
-103.043579
-125.410278
-155.663147
-185.256348
-207.855469
-221.993347
-229.589478
-233.834473
-238.013489
-255.318970
-294.007263
-351.619812
-417.765808
-482.448486
-539.577454
-586.082397
-621.003235
-581.180359
-444.708984
-248.030457
-56.253418
89.536560
183.886810
239.787109
273.213684
296.379852
316.436035
326.381134
321.278290
305.031952
287.477631
275.920166
271.877777
273.224091
276.755554
279.955872
273.755890
253.882660
224.643616
195.392654
173.240829
160.039001
154.031448
152.113815
151.561188
145.808578
131.711411
111.816345
92.096985
77.133347
68.096420
63.703178
61.748398
60.322563
55.900543
47.001564
35.144348
23.650330
15.199417
10.961124
10.889854
14.208645
19.434593
23.605183
23.925564
19.117100
9.884186
-1.608246
-12.258017
-19.272133
-21.132883
-18.000650
-11.507103
-3.748577
3.541840
9.523912
14.062471
17.318878
19.359068
20.090677
19.508856
17.843628
15.568779
13.271824
11.435177
10.393038
10.126373
10.314290
10.437757
9.993186
8.725305
6.744561
4.606271
3.060929
2.694908
3.767717
6.071509
9.100077
12.268715
15.093998
17.305513
18.950151
20.238274
21.329414
22.061920
21.864784
19.945564
15.711334
9.172599
1.083123
-7.196332
-14.305851
-19.395706
-22.396456
-23.897699
-24.780035
-25.859276
-27.359102
-29.503780
-32.350372
-35.781910
-39.442101
-42.846748
-45.632256
-47.714062
-49.408783
-51.263775
-53.844696
-57.338806
-61.610878
-66.323441
-71.103226
-75.690811
-79.814438
-83.063438
-84.876495
-84.693535
-82.147484
-77.262245
-70.468178
-62.534828
-54.312462
-46.632027
-40.223717
-35.762070
-33.848816
-34.883347
-38.941864
-45.628281
-54.077698
-63.014175
-71.049194
-76.973007
-80.030823
-80.058502
-77.396362
-72.696228
-66.667038
-59.896973
-52.766724
-45.504822
-38.233093
-31.148407
-24.535583
-18.811310
-14.400299
-11.578735
-10.348145
-10.464630
-11.621796
-13.561096
-16.112274
-19.061005
-21.827118
-23.292236
-21.923492
-16.192413
-5.122528
11.237366
31.804169
54.776855
78.216431
100.523987
120.570007
137.619507
151.107971
160.584351
165.705322
166.476074
163.291016
156.973511
148.681091
139.670410
131.014648
123.368347
116.815369
110.921509
104.912964
97.945801
89.372986
78.958069
66.892334
53.772522
40.474426
28.002380
17.287109
9.082947
3.730591
1.151550
0.764343
1.638733
2.631042
2.658081
1.007019
-2.437988
-7.101257
-11.845642
-15.279602
-16.148071
-13.742615
-8.049744
0.222229
9.831543
19.288147
27.240601
32.727539
35.454834
35.754639
34.393311
32.224854
29.829285
27.390625
24.930786
22.573181
20.731384
19.947876
20.563843
22.377808
24.628784
26.305725
26.631409
25.406067
22.991638
19.986633
16.808289
13.477844
9.757935
5.461060
0.705078
-4.089783
-8.486206
-12.380066
-16.168762
-20.561401
-26.101868
-32.885742
-40.230713
-46.920044
-51.565552
-53.037231
-50.741211
-44.691528
-35.378723
-23.665283
-10.665894
2.360413
14.097717
23.430725
29.719482
32.931519
33.662048
32.799194
31.199585
29.376953
27.538940
25.765076
24.241455
23.305542
23.334229
24.520081
26.749878
29.661011
32.868225
36.123596
39.294800
42.145996
44.197266
44.654602
42.665039
37.700989
29.916565
20.194458
9.968689
0.674683
-6.736816
-12.134644
-16.265381
-20.309326
-25.389526
-32.046692
-39.993347
-48.323059
-55.924438
-61.912231
-65.783997
-67.344910
-66.466370
-62.982361
-56.818359
-48.231445
-37.854797
-26.490479
-14.547729
-1.863403
12.143433
27.763245
44.283325
59.767517
71.699585
78.177246
79.000732
75.972717
72.100403
70.160339
71.499146
75.629211
80.808105
85.095520
87.307800
87.223511
85.256042
81.815308
76.900391
70.163818
61.293823
50.484802
38.678528
27.385132
18.310364
12.796692
11.448242
13.877197
18.853394
24.541077
29.055847
30.879822
29.277771
24.217651
16.201172
5.904968
-5.918701
-18.453979
-30.567627
-40.845703
-47.842804
-50.640625
-49.289978
-44.936768
-39.392853
-34.476196
-31.311462
-30.018463
-29.866150
-29.739197
-28.619690
-25.952301
-21.744080
-16.491272
-10.906708
-5.647217
-0.916443
3.569946
8.365143
13.670624
18.903625
22.564484
22.830109
18.381195
9.136993
-3.696350
-18.197510
-32.613678
-45.907684
-57.855286
-68.650726
-78.463531
-87.179871
-94.528625
-100.257233
-104.223663
-106.219238
-105.799316
-102.303802
-95.068787
-83.736084
-68.632141
-50.842285
-32.105682
-14.456970
0.190308
10.593109
16.434753
18.532654
18.545258
18.487305
20.121338
24.415924
31.440933
40.490799
50.528030
60.639206
70.238007
79.132217
87.199951
94.216507
99.757553
103.425964
105.170746
105.542175
105.625000
106.695892
109.660614
114.631226
120.784576
126.592941
130.272003
130.313660
125.823364
116.538818
102.775696
85.416000
65.822670
45.699074
26.561531
9.134880
-7.053673
-23.518791
-42.045280
-63.558266
-87.392525
-111.388275
-132.784607
-149.416565
-160.496704
-166.535873
-168.602173
-167.469513
-163.341156
-156.174561
-146.338928
-134.902679
-123.369774
-113.020111
-104.381104
-96.969238
-89.713326
-81.565804
-72.096123
-61.712170
-51.555546
-43.058529
-37.462444
-35.306316
-36.168621
-38.783642
-41.470737
-42.848759
-42.367897
-40.511520
-38.579979
-38.008854
-39.768082
-43.854218
-49.263851
-54.320026
-57.200249
-56.462433
-51.350399
-41.875874
-28.743492
-13.113190
3.633385
20.075138
34.953453
47.256985
56.234501
61.449158
62.794243
60.550926
55.403519
48.376053
40.656395
33.402260
27.444952
23.191980
20.629395
19.474678
19.280436
19.608536
20.078478
20.368172
20.191385
19.397243
17.982647
16.149410
14.230021
12.553085
11.216522
10.010552
8.432744
5.897919
1.950529
-3.553585
-10.395528
-18.048531
-25.734016
-32.612129
-37.820152
-40.580612
-40.348492
-36.861794
-30.302372
-21.318659
-11.056917
-0.945784
7.594755
13.561127
16.673044
17.318439
16.372948
14.722794
12.918404
11.121231
9.261414
7.367756
5.721771
4.781574
4.847408
5.838684
7.216434
8.245335
8.308296
7.222179
5.204063
2.720444
0.188469
-2.218689
-4.608143
-7.364796
-10.843918
-15.301319
-20.757103
-26.987511
-33.614685
-40.105240
-45.851227
-50.072906
-51.916290
-50.615005
-45.681839
-37.217728
-25.958076
-13.120842
-0.081688
11.916931
21.959610
29.476578
34.129387
35.863556
34.846909
31.572990
26.794991
21.399307
16.219673
11.909744
8.865227
7.260139
7.045959
7.972916
9.589691
11.298805
12.517891
12.836990
12.092270
10.421432
8.128189
5.564392
2.943848
0.294327
-2.535187
-5.800400
-9.798828
-14.790421
-20.903854
-28.036713
-35.725601
-43.125092
-49.065872
-52.313019
-51.876053
-47.312012
-38.857712
-27.403534
-14.265747
-0.858459
11.540115
22.002151
29.875290
34.782715
36.603104
35.503906
32.003555
26.924301
21.326935
16.320496
12.798096
11.316162
11.963837
14.382477
17.868805
21.436188
24.113434
25.215698
24.565323
22.503830
19.713120
16.881958
14.396820
12.268143
10.226562
7.971313
5.308334
2.072891
-1.950516
-7.072327
-13.572617
-21.428864
-30.062561
-38.257629
-44.444275
-47.067139
-45.147095
-38.498169
-27.857025
-14.729095
-0.925323
11.897034
22.592682
30.687744
36.225464
39.489960
40.757721
40.258240
38.181763
34.948456
31.162292
27.493835
24.475494
22.390778
21.265350
20.948029
21.248169
21.960236
22.822357
23.595703
24.040497
24.024628
23.446167
22.138031
19.868195
16.443085
11.893738
6.651093
1.395721
-3.227966
-7.035187
-10.476929
-14.427979
-19.653107
-26.230347
-33.393280
-39.670654
-43.393921
-43.271332
-38.690796
-29.870422
-17.661469
-3.429993
11.290222
24.939880
36.213135
44.157349
48.238342
48.409729
45.154724
39.436279
32.531921
25.821136
20.391846
16.793365
15.029175
14.651642
15.134918
16.013794
16.909454
17.495697
17.434937
16.478607
14.589417
12.029877
9.196716
6.471191
3.981903
1.664551
-0.665680
-3.202423
-6.149536
-9.713837
-14.168182
-19.837708
-26.907898
-35.197327
-43.852631
-51.565216
-56.894897
-58.741882
-56.704102
-51.105438
-43.003204
-33.740479
-24.545837
-16.108185
-8.694489
-2.576752
1.876129
4.163239
3.995422
1.542419
-2.433228
-6.821960
-10.061462
-11.212006
-10.470795
-8.834106
-7.362732
-6.469543
-5.786285
-4.623596
-2.597870
1.235992
7.003723
13.720886
19.715576
23.580078
24.981445
24.481567
23.005707
21.151917
20.818634
23.004944
27.032684
30.930603
32.798187
32.120697
30.093262
29.169861
32.510162
45.803162
73.255890
115.092743
166.658447
219.977631
266.901154
301.837097
323.327850
317.884735
280.595673
217.445587
143.430923
73.693192
16.478668
-26.586838
-56.855118
-76.373764
-87.474106
-90.533890
-86.666245
-78.337784
-68.869568
-61.092178
-56.431305
-54.977173
-56.359467
-60.177429
-64.106102
-66.146790
-65.680504
-63.649666
-61.627640
-60.673195
-60.984688
-62.364738
-64.588745
-66.848816
-68.653015
-70.173172
-71.901138
-73.855019
-75.232666
-74.777954
-71.845749
-66.931946
-61.049843
-55.690109
-52.459587
-52.664169
-56.746235
-63.914204
-72.189148
-78.854912
-81.090340
-76.654106
-64.743866
-46.593136
-25.174187
-4.109261
13.524761
26.110237
33.591946
37.252434
38.469772
38.655884
38.902889
39.768307
41.360867
43.429031
45.435646
46.650063
46.331264
43.854202
38.870728
31.370033
21.683197
10.482758
-1.264160
-12.474449
-22.063995
-29.157516
-33.198486
-33.947273
-31.448120
-25.995964
-18.137733
-8.643578
1.452843
10.889572
18.365891
22.715729
23.251465
19.941803
13.472672
5.066345
-3.769073
-11.665016
-17.704132
-21.539940
-23.350479
-23.651649
-23.080643
-22.218559
-21.578712
-21.591309
-22.596779
-24.776817
-28.078209
-32.192337
-36.654793
-41.064781
-45.219658
-49.208885
-53.296318
-57.813202
-62.906616
-68.454132
-73.999977
-78.765907
-81.778519
-82.089157
-79.007378
-72.363441
-62.624107
-50.768288
-37.997505
-25.469872
-14.022133
-4.224007
3.564087
9.092140
12.245430
13.167480
12.345901
10.557007
8.706085
7.491966
7.299072
8.100929
9.588188
11.304554
12.803669
13.745865
13.986576
13.602047
12.848003
12.011591
11.225334
10.417580
9.280226
7.466320
4.713426
0.911508
-3.880235
-9.551981
-15.904287
-22.526279
-28.670635
-33.267651
-35.062122
-33.095844
-27.004057
-17.261534
-5.027555
8.224018
21.070042
32.396099
41.530724
48.160858
52.206463
53.783527
53.137230
50.686447
47.078342
43.074066
39.456314
36.764610
35.176163
34.418793
33.956955
33.267090
32.035645
30.268921
28.199043
26.067169
23.984238
21.877617
19.532127
16.739243
13.325996
9.139793
4.010773
-2.298340
-9.874878
-18.451736
-27.236732
-34.956512
-40.125061
-41.492867
-38.483238
-31.371338
-21.223930
-9.498779
2.370598
13.225487
22.351357
29.328102
33.926918
36.035774
35.750771
33.419350
29.682831
25.362312
21.213722
17.775352
15.293655
13.714775
12.801781
12.226738
11.630692
10.738136
9.378670
7.518921
5.311180
2.945953
0.566681
-1.862381
-4.526474
-7.711807
-11.674973
-16.576370
-22.418091
-29.107849
-36.351166
-43.678452
-50.298904
-55.213013
-57.399231
-56.090805
-51.034470
-42.592880
-31.627899
-19.303665
-6.748001
5.069931
15.427017
23.761383
29.665512
32.907257
33.433777
31.494858
27.651016
22.677170
17.414169
12.554977
8.523148
5.416489
3.077515
1.117737
-0.926102
-3.551285
-7.199020
-12.115829
-18.303238
-25.509995
-33.373093
-41.611526
-50.126740
-59.068787
-68.638290
-79.016296
-90.267380
-102.450333
-115.587570
-129.703888
-144.506042
-159.270233
-172.789276
-183.706360
-190.987061
-194.245117
-193.831696
-190.738617
-186.247559
-181.741486
-178.618988
-178.311035
-182.086975
-190.819366
-204.448547
-221.719696
-240.134308
-256.437408
-267.342651
-270.422119
-264.625671
-250.360046
-229.220276
-203.326477
-174.709900
-145.015930
-115.298584
-86.219360
-58.185242
