1426078552.000000
64.000000
0.000000
0.000000
0.000000
0.000000
0.000000
0.000000
0.000000
0.000000
0.000000
0.002232
-0.004517
-0.011266
-0.011384
0.001186
0.025910
0.050634
0.051363
-0.001493
-0.130243
-0.355628
-0.659125
-1.009510
-1.370983
-1.719736
-2.055110
-2.399450
-2.786664
-3.239907
-3.796012
-4.418684
-5.059294
-5.664410
-6.202154
-6.680880
-7.149598
-7.678234
-8.310739
-9.143657
-10.089731
-11.041313
-11.884212
-12.564316
-13.135630
-13.760044
-14.652320
-15.962056
-17.914442
-20.317299
-22.903854
-25.379471
-27.578028
-29.572460
-31.675173
-34.317799
-37.813618
-42.541233
-48.146301
-54.104755
-59.833092
-64.972374
-69.582932
-74.143532
-79.344986
-85.707260
-93.761932
-102.997787
-112.617569
-121.730339
-129.766022
-136.751022
-143.303436
-150.746231
-157.773560
-166.643234
-177.947983
-191.791016
-206.968079
-220.565918
-228.246445
-225.361542
-208.531982
-176.870239
-132.762222
-80.049973
-23.069275
34.943390
92.436951
149.156952
205.227722
260.369629
313.741333
363.873962
409.833527
450.907745
486.502441
515.738647
537.227417
549.219971
549.961304
538.367004
514.205505
478.674011
433.879517
382.451263
327.021057
269.841858
212.633789
156.659393
102.952332
52.373596
5.904694
-35.580414
-71.425842
-101.351837
-125.501129
-144.379700
-158.694031
-169.150711
-176.371094
-180.751389
-182.574188
-182.068634
-179.506607
-175.233246
-169.652863
-163.176910
-156.145676
-148.806808
-141.296860
-133.689835
-126.019623
-118.332680
-110.688637
-103.155724
-95.804550
-88.684166
-81.827438
-75.245888
-68.952332
-62.948399
-57.246197
-51.855110
-46.779984
-42.024517
-37.582512
-33.451424
-29.618797
-26.085348
-22.838181
-19.876318
-17.194735
-14.786813
-12.648365
-10.766205
-9.129879
-7.721712
-6.527454
-5.526329
-4.698503
-4.024155
-3.483195
-3.057499
-2.729692
-2.490220
-2.325809
-2.227135
-2.182664
-2.188276
-2.240258
-2.327249
-2.453159
-2.611423
-2.804193
-3.031463
-3.297275
-3.604954
-3.952901
-4.349924
-4.787363
-5.273169
-5.813917
-6.411398
-7.074205
-7.801088
-8.607141
-9.488149
-10.460870
-11.497089
-12.615507
-13.817301
-15.111628
-16.501953
-17.995131
-19.595322
-21.308422
-23.151693
-25.069862
-27.081051
-29.195488
-31.427883
-33.795040
-36.311680
-38.977936
-41.785950
-44.737915
-47.668335
-50.505249
-53.091141
-55.228210
-56.662453
-57.144348
-56.428505
-54.314362
-50.731194
-45.461197
-38.606339
-30.366219
-21.034134
-10.976219
-0.609932
9.629829
19.352150
27.482819
34.140282
39.262924
42.841850
44.940727
45.725662
45.386780
44.177856
42.763855
41.077148
39.333435
37.575272
35.878494
34.267136
32.793091
31.469528
30.337677
29.421814
28.654999
28.153214
27.839981
27.703568
27.727737
27.925018
28.325562
28.973068
29.923279
31.157455
32.743347
34.551819
36.546051
38.672775
40.962784
43.481628
46.352844
49.706161
53.564682
57.896759
62.414963
66.839340
70.857208
74.189911
76.663086
78.208023
78.755234
78.149734
76.654602
73.521713
68.210419
60.475464
50.505188
38.955688
26.831528
15.249985
5.124496
-3.040527
-9.309372
-13.901688
-17.170822
-19.324821
-20.362572
-20.018921
-18.017273
-14.071556
-8.055183
-0.073486
9.406677
19.252861
27.599922
32.302513
31.779388
25.779602
15.759415
4.489536
-4.934124
-10.233017
-10.637466
-7.217884
-1.646858
4.519197
10.575425
16.454517
22.387997
28.352741
33.952103
38.657303
41.797985
43.285713
43.529739
42.953449
41.622421
39.143379
34.801888
28.004166
18.553406
6.306702
-8.191048
-24.033699
-40.301277
-56.319725
-71.710907
-86.412170
-100.565262
-111.194214
-117.591064
-119.991653
-119.137161
-115.974533
-111.229111
-105.396530
-98.666214
-91.299484
-83.698425
-77.040207
-72.199295
-69.427826
-68.163834
-67.184784
-65.067871
-60.929489
-54.631271
-46.898026
-39.241730
-32.777100
-27.844849
-24.069580
-20.631256
-16.781326
-12.097000
-6.694946
-1.108200
3.634003
6.654602
7.508743
6.289795
3.455902
-0.308990
-4.374527
-8.301453
-11.749390
-14.411804
-15.896439
-15.787979
-13.920242
-10.561493
-6.314224
-1.871628
2.233704
5.749359
8.682495
11.044342
12.891632
14.195099
14.938599
15.119186
14.843872
14.201309
13.293564
12.362335
11.587708
10.876396
10.374817
9.900482
9.089897
7.713722
5.844276
3.902298
2.407646
1.687576
1.707207
2.079918
2.261292
1.880692
0.871666
-0.502007
-1.947289
-3.130074
-3.977821
-4.591202
-5.189674
-5.976044
-6.855362
-7.590530
-7.811729
-7.372360
-6.517036
-5.775230
-5.614952
-6.129959
-6.965195
-7.353516
-6.566093
-4.262070
-0.674980
3.443424
7.524673
11.088943
14.044498
16.451904
18.513195
20.332649
21.929554
23.255714
24.250950
24.855282
24.854389
24.083145
22.236217
19.148407
14.771431
9.290730
3.122200
-3.101952
-8.575401
-12.587952
-14.575077
-14.312050
-11.932531
-7.975306
-3.210941
1.600939
5.764065
8.931482
10.903816
11.817205
11.887802
11.385050
10.608234
9.796438
9.193102
8.911367
8.996576
9.270664
9.457445
9.246746
8.436384
7.115032
5.551250
4.244911
3.621321
3.852501
4.807492
6.092153
7.255207
8.014725
8.382444
8.625891
9.112454
10.095506
11.646976
13.600939
15.555830
17.139080
18.039919
18.354889
18.300985
18.326574
18.770893
19.777725
21.227873
22.802582
24.192104
25.337095
26.493916
28.150475
30.783209
34.605385
39.460678
44.827717
49.884232
53.801304
55.713123
54.936081
50.916756
43.396465
32.389759
18.314693
2.131115
-14.742756
-30.598232
-43.874607
-53.526123
-59.304546
-61.787868
-62.034378
-61.190407
-60.005081
-58.759178
-57.256279
-55.203423
-52.410515
-48.957436
-45.101501
-41.165573
-37.434441
-34.078621
-31.247162
-28.994797
-27.330093
-26.166771
-25.326813
-24.633728
-23.793655
-22.588120
-20.860817
-18.587311
-15.837677
-12.744492
-9.489342
-6.271431
-3.192245
-0.222809
2.837570
6.294556
10.354279
15.022362
20.024178
25.001801
29.753616
34.193542
38.522095
42.946175
47.591599
52.497131
57.673676
63.291573
69.633606
76.957672
85.003098
92.782890
98.494392
100.048119
95.773201
85.078827
68.762512
48.727188
27.272476
6.464485
-12.356918
-28.600853
-42.102455
-52.834953
-60.710487
-65.586327
-67.573654
-67.125488
-65.082016
-62.422676
-59.962875
-58.110878
-56.659447
-55.109718
-52.939430
-49.963608
-46.539017
-43.363632
-41.176109
-40.332504
-40.630478
-41.397079
-41.893867
-41.609230
-40.426773
-38.572418
-36.387398
-34.150131
-31.898232
-29.634369
-27.279289
-24.889221
-22.642021
-20.740540
-19.253662
-17.975136
-16.478165
-14.201401
-10.799522
-6.292793
-1.091080
4.185738
9.081680
13.461823
17.588120
21.856667
26.571388
31.626198
36.643646
41.206902
45.097961
48.513359
51.900696
55.845787
60.763771
66.851334
73.962532
81.723785
89.426430
96.027657
100.358078
101.179459
97.562370
89.102768
76.039955
59.258926
40.111603
20.067368
0.485252
-17.532990
-33.200623
-46.021065
-55.726006
-62.315392
-66.071404
-67.528625
-67.319077
-66.177132
-64.546661
-62.690308
-60.608955
-58.248306
-55.668358
-53.080757
-50.771530
-48.801765
-46.990219
-44.940094
-42.452660
-39.718948
-37.343849
-36.111748
-36.380890
-37.818657
-39.445679
-40.113258
-39.092743
-36.438423
-32.835953
-29.116905
-25.811806
-22.825699
-19.778114
-16.282814
-12.314339
-8.171783
-4.267342
-0.818237
2.414185
5.909378
10.275513
15.754951
22.150520
28.794640
34.889198
39.830658
43.472076
46.139023
48.421532
50.919029
53.925262
57.490532
61.589432
66.233841
71.612450
77.892464
84.972908
92.252419
98.625237
102.640656
102.913719
98.489609
89.144608
75.504051
58.801117
40.655106
22.634949
5.997421
-8.449539
-20.442741
-30.085472
-37.667641
-43.430237
-47.493011
-49.859917
-50.564049
-49.764778
-47.832207
-45.222168
-42.392052
-39.752289
-37.531746
-35.987206
-35.370560
-35.874474
-37.565010
-40.078865
-42.652573
-44.242889
-43.997353
-41.587646
-37.398193
-32.394852
-27.660698
-23.989395
-21.625946
-20.299522
-19.410393
-18.385506
-16.793282
-14.455521
-11.345200
-7.503044
-3.147118
1.485710
6.066307
10.326065
14.135872
17.711121
21.463318
25.921654
31.563309
38.532623
46.603287
55.173050
63.465256
70.905502
77.330673
83.177567
89.211411
96.167206
104.179337
112.485367
119.472076
123.079483
121.451004
113.489944
99.233032
79.730347
56.867523
32.820023
9.670029
-10.971863
-28.203705
-41.720245
-51.811234
-59.075272
-64.295547
-68.266830
-71.665833
-74.930878
-78.146042
-81.046280
-83.115509
-83.799454
-82.761520
-80.121506
-76.374847
-72.344742
-68.878403
-66.529785
-65.622879
-66.022781
-67.361908
-69.093033
-70.708023
-71.791214
-72.032104
-71.232605
-69.131516
-65.617401
-60.774689
-54.987778
-48.941788
-43.351669
-38.741653
-35.209854
-32.497589
-30.198242
-27.987366
-25.779770
-23.629257
-21.581985
-19.524902
-17.233368
-14.510880
-11.401428
-8.129028
-5.029404
-2.312363
0.027557
2.223404
4.757233
8.036026
12.325531
17.477325
22.954803
28.003677
31.965607
34.752213
36.930756
39.571701
43.654984
49.550446
56.708725
63.939896
70.025681
74.251038
76.876648
78.841995
81.435455
85.595413
91.662582
99.241974
107.365143
114.746872
119.958435
121.721176
118.945389
110.930527
97.501297
79.144180
57.070816
33.111069
9.437912
-11.982498
-29.792587
-43.631393
-54.015167
-61.936234
-68.306198
-73.529419
-77.515549
-79.843796
-80.295517
-78.952972
-76.269806
-72.821106
-69.134201
-65.660828
-62.669357
-60.409714
-58.895920
-58.089279
-57.747467
-57.630325
-57.524261
-57.383041
-57.251999
-57.117188
-56.847549
-56.186844
-54.843079
-52.630447
-49.545074
-45.789459
-41.622513
-37.396286
-33.345779
-29.632416
-26.240295
-23.153549
-20.319290
-17.712433
-15.291138
-12.815956
-9.909393
-6.133476
-1.211884
4.768524
11.283752
17.580505
22.897896
26.883904
29.752991
32.049095
34.484848
37.522957
41.335991
45.753510
50.463844
55.175179
59.743011
64.219215
68.768341
73.600533
78.890503
84.686829
90.849579
96.952087
102.202744
105.439957
105.266144
100.366554
89.983147
74.190384
54.124580
31.733582
9.362885
-10.839161
-27.396866
-39.743519
-48.100178
-53.153606
-55.751942
-56.619709
-56.116600
-54.564095
-52.178135
-49.323555
-46.448284
-43.952503
-41.979679
-40.233238
-38.118767
-35.173405
-31.395744
-27.472248
-24.445683
-23.217789
-23.992294
-26.127415
-28.406200
-29.587765
-28.937077
-26.445892
-22.568001
-17.894573
-12.830860
-7.536484
-2.176517
3.013588
7.661201
11.444427
14.283730
16.421158
18.417431
20.805531
24.136063
28.617405
34.180443
40.434563
46.814369
52.744648
57.861820
62.233662
66.413322
71.242950
77.458435
85.168716
93.550873
100.862534
104.901688
103.611069
95.798386
81.467987
61.868755
39.056091
15.380825
-7.007149
-26.527340
-42.212318
-53.793358
-61.525352
-66.103638
-68.387726
-69.295105
-69.510735
-69.434525
-69.146088
-68.441689
-67.122482
-65.108116
-62.556519
-59.799271
-57.242188
-55.227646
-53.848274
-53.082993
-52.722176
-52.484055
-52.170517
-51.669006
-50.953209
-49.887451
-48.242424
-45.715347
-42.184853
-37.825706
-33.183693
-28.913795
-25.504745
-22.975780
-20.893055
-18.631958
-15.713360
-12.172550
-8.327835
-4.606434
-1.125710
2.393726
6.370720
11.103951
16.397602
21.716816
26.379093
30.019341
32.773403
35.276421
38.455685
43.031811
49.158051
56.290871
63.408222
69.455315
73.828949
76.728424
79.046867
82.026047
86.599686
92.979111
100.367203
107.217949
111.602425
111.834511
106.840981
96.330635
80.875298
61.667412
40.326775
18.604494
-1.933081
-19.974539
-34.694427
-45.688965
-53.091934
-57.440315
-59.622974
-60.551804
-60.969219
-61.196365
-61.173058
-60.606277
-59.275478
-57.221882
-54.744507
-52.272213
-50.237537
-48.851795
-48.259220
-48.453793
-49.499241
-51.431820
-54.222576
-57.533218
-60.771671
-63.054184
-63.523098
-61.713097
-57.840370
-52.753323
-47.618530
-43.360077
-40.285069
-38.029037
-35.820770
-33.012035
-29.443668
-25.453682
-21.688919
-18.554325
-16.074175
-13.792030
-11.081280
-7.477719
-2.901197
2.287594
7.506683
12.186171
15.995771
19.030991
21.630175
24.232347
27.111885
30.275826
33.494339
36.543350
39.314823
41.953266
44.735088
47.912460
51.597084
55.831215
60.636452
66.121391
72.474960
79.704826
87.373505
94.530960
99.709366
101.396103
98.382820
90.245438
77.360001
60.831181
42.281914
23.466675
5.971146
-9.069733
-21.149399
-30.357029
-37.280220
-42.613239
-46.847221
-50.047325
-51.935478
-52.160137
-50.714016
-47.977726
-44.678741
-41.558464
-38.979130
-37.005810
-35.485470
-34.307503
-33.533142
-33.369137
-33.898880
-34.872887
-35.707676
-35.632050
-34.274231
-31.760086
-28.710915
-25.821671
-23.486473
-21.558304
-19.508789
-16.851540
-13.385658
-9.350220
-5.123367
-0.916382
3.332390
7.946304
13.136078
18.848770
24.636368
30.039825
34.703751
38.586952
41.890907
44.835403
47.686600
50.698936
54.258125
58.769608
64.489326
71.212639
78.088348
83.622849
86.084435
84.085175
76.944244
64.950531
49.195717
31.320282
13.074333
-3.994308
-18.664474
-30.242043
-38.434891
-43.437332
-45.828659
-46.405243
-45.984131
-45.052475
-43.700104
-41.590729
-38.431854
-34.283417
-29.749237
-25.764214
-23.184273
-22.325905
-22.908485
-24.227249
-25.615181
-26.698380
-27.462433
-28.036919
-28.416428
-28.323135
-27.470741
-25.634987
-22.909904
-19.555923
-15.911186
-12.166245
-8.417946
-4.726845
-1.021477
2.775513
6.929855
11.740540
17.403427
23.844559
30.571198
36.851128
41.953243
45.567200
47.910637
49.714367
51.943001
55.526070
61.047230
68.540070
77.461182
86.616226
94.345535
98.891472
98.740768
93.012115
81.640488
65.463440
45.941639
24.970509
4.440300
-14.060303
-29.535446
-41.615570
-50.553009
-56.938675
-61.425632
-64.527298
-66.458275
-67.262726
-66.987511
-65.743645
-63.768700
-61.292591
-58.547329
-55.641739
-52.741165
-50.029587
-47.769943
-46.254082
-45.723732
-46.255707
-47.589256
-49.196655
-50.402695
-50.620583
-49.537769
-47.211563
-44.076447
-40.721992
-37.697311
-35.295105
-33.452919
-31.792366
-29.802952
-27.110802
-23.688629
-19.948528
-16.477541
-13.827452
-12.146843
-11.131359
-10.115402
-8.450790
-5.804382
-2.226471
1.923832
6.374958
10.981693
15.725929
20.473980
24.927513
28.620293
31.231277
32.848923
33.973907
35.364433
37.614418
40.884743
44.854767
48.856674
52.304024
54.811584
56.552986
57.950768
59.733131
62.539101
66.762634
72.295311
78.451836
84.178337
88.280533
89.730576
87.828804
82.224358
72.832695
59.761436
43.398582
24.538940
4.549446
-14.835030
-31.846420
-45.316879
-54.878197
-60.929909
-64.309944
-65.691605
-65.527069
-63.966644
-61.231613
-57.742935
-54.107368
-50.885853
-48.217300
-45.871704
-43.291378
-40.218075
-36.839344
-33.890541
-32.147434
-32.064941
-33.441338
-35.594074
-37.665020
-39.035965
-39.442497
-38.852913
-37.277916
-34.690170
-31.053421
-26.661934
-22.049034
-18.054344
-15.323090
-14.106918
-14.058525
-14.355598
-14.116676
-12.584999
-9.525444
-5.181396
-0.150032
4.849411
9.252663
12.803093
15.623596
18.060112
20.575233
23.440521
26.784050
30.458977
34.179939
37.662613
40.695557
43.289162
45.642296
48.207863
51.585243
56.350555
62.752235
70.361801
78.084145
84.195297
87.083549
85.592102
79.464722
69.248520
55.989510
40.939285
25.224297
9.908966
-4.043015
-15.873184
-25.175049
-32.014191
-36.805138
-40.037750
-41.957283
-42.544167
-41.660446
-39.357285
-36.011642
-32.261688
-28.756065
-25.929451
-23.968750
-22.865417
-22.534073
-22.762283
-23.247520
-23.643608
-23.657471
-23.212029
-22.456558
-21.706390
-21.118027
-20.674232
-20.093887
-19.110413
-17.536430
-15.261864
-12.305656
-8.742317
-4.760666
-0.617416
3.339851
6.907341
10.143059
13.294395
16.732124
20.574348
24.675934
28.755936
32.564186
36.128372
39.670486
43.439751
47.643303
52.332535
57.557838
63.363472
69.634369
75.847900
80.909279
83.380974
81.914177
75.671516
64.751518
50.052277
33.026642
15.160690
-2.210442
-18.097206
-31.774101
-42.743652
-50.742790
-55.672928
-57.801800
-57.661224
-56.030064
-53.727989
-51.469154
-49.611431
-48.079224
-46.605881
-44.810966
-42.641544
-40.322418
-38.286430
-36.917336
-36.452763
-36.856060
-37.707565
-38.369999
-38.157887
-36.663357
-34.018696
-30.943790
-28.430431
-27.214386
-27.319439
-28.004791
-28.221146
-27.142551
-24.690868
-21.435341
-18.197189
-15.446358
-13.066235
-10.482742
-7.179661
-3.113434
1.313782
5.404060
8.661251
10.977886
12.589722
14.021133
15.706329
17.955669
20.825829
24.237263
27.975090
31.870655
35.894730
40.133995
44.705463
49.642998
54.908203
60.429234
66.196121
72.233780
78.366150
83.960754
87.873550
88.715912
85.325317
77.310287
65.177795
50.217789
34.030071
17.996059
3.060390
-10.266632
-21.764679
-31.274906
-38.759201
-44.318138
-48.152126
-50.656857
-52.230000
-53.202286
-53.670784
-53.483639
-52.339317
-49.945614
-46.408188
-42.275757
-38.481861
-35.933388
-35.024090
-35.481972
-36.578171
-37.573830
-38.076683
-38.173412
-38.120789
-38.056889
-37.883888
-37.316803
-36.225723
-34.686966
-32.857033
-30.763073
-28.243347
-25.110165
-21.463242
-17.684551
-14.384205
-11.978764
-10.444481
-9.374569
-8.252914
-6.807095
-4.977276
-2.892494
-0.639530
1.914043
4.867371
8.209934
11.692307
14.939388
17.642601
19.792648
21.640667
23.519009
25.644535
27.967525
30.209862
32.163803
33.950966
36.153381
39.604393
44.952110
52.179710
60.463821
68.360657
74.304733
77.181686
76.590111
72.656784
65.726471
56.046341
43.783333
29.304443
13.483093
-2.270058
-16.333832
-27.457779
-35.116882
-39.578156
-41.574333
-41.987755
-41.526230
-40.640656
-39.567207
-38.435638
-37.284477
-36.144829
-34.922958
-33.567825
-32.043152
-30.331749
-28.540100
-26.812668
-25.299416
-24.140778
-23.430748
-23.176605
-23.283669
-23.554649
-23.683861
-23.438309
-22.760231
-21.723175
-20.517540
-19.221207
-17.766319
-15.957329
-13.551399
-10.508774
-7.002121
-3.418396
-0.109215
2.778435
5.356804
7.903770
10.718468
13.920265
17.391541
20.878716
24.074928
26.791389
29.079643
31.325294
34.187798
38.463318
44.749275
53.108101
62.845444
72.554375
80.458740
84.757622
84.252792
78.505226
67.930779
53.642662
37.159309
20.189384
4.234138
-9.550224
-20.564011
-28.734657
-34.327477
-37.760071
-39.454208
-39.775185
-39.016251
-37.461517
-35.275581
-32.576920
-29.437965
-25.916191
-22.183258
-18.561676
-15.474739
-13.294891
-12.253654
-12.309357
-13.175552
-14.444847
-15.724205
-16.743156
-17.271591
-17.181297
-16.319054
-14.686836
-12.420197
-9.753693
-7.011818
-4.478554
-2.344185
-0.594971
0.974754
2.699837
5.052521
8.473656
13.245003
19.255043
25.997078
32.588493
38.208229
42.385162
45.260384
47.576096
50.400787
54.676086
60.749111
68.187653
75.779060
81.771751
84.309235
82.033386
74.481140
62.187939
46.559959
29.305744
12.067764
-3.961254
-18.059517
-29.741158
-38.706257
-44.911629
-48.748524
-50.974899
-52.568245
-54.199181
-55.951363
-57.363167
-57.756134
-56.693554
-54.175327
-50.675133
-46.706841
-42.786285
-39.263176
-36.350334
-34.271835
-33.188152
-33.093513
-33.762779
-34.757011
-35.565979
-35.827454
-35.309116
-34.000885
-32.019768
-29.569538
-26.943249
-24.442537
-22.314827
-20.569490
-19.032238
-17.406475
-15.510457
-13.362750
-11.161747
-9.191381
-7.634361
-6.403299
-5.204746
-3.618975
-1.319672
1.797373
5.512064
9.433714
13.120598
16.221224
18.652029
20.582087
22.370146
24.397297
26.971207
30.208506
34.021439
38.129944
42.232796
46.124924
49.796890
53.392597
57.203339
61.556740
66.569450
72.152267
77.864349
82.872482
85.981590
85.931503
81.648438
72.730972
59.588795
43.480156
26.146866
9.375734
-5.547149
-17.988258
-27.869572
-35.518230
-41.316975
-45.550087
-48.482857
-50.319473
-51.285038
-51.551517
-51.157417
-50.045113
-48.162277
-45.647453
-42.838116
-40.198391
-38.134155
-36.864311
-36.423981
-36.640766
-37.396347
-38.542305
-39.821053
-40.849628
-41.239422
-40.807762
-39.650974
-38.146931
-36.685093
-35.431179
-34.259495
-32.890724
-31.115671
-28.918686
-26.438089
-23.904755
-21.537008
-19.433220
-17.806040
-16.795042
-16.505241
-16.764179
-17.022537
-16.425743
-14.135322
-9.832524
-3.884441
2.707582
8.723279
13.298510
16.210152
17.992641
19.565338
21.778584
24.974403
28.917934
32.967445
36.482456
39.266777
41.669636
44.408104
48.217754
53.551311
60.347713
68.057358
75.863785
82.801865
87.945190
90.422356
89.536163
84.760536
75.954758
63.417362
47.975876
30.931896
13.800220
-1.937359
-15.158451
-25.350269
-32.563290
-37.313507
-40.286098
-42.028240
-42.872078
-42.969273
-42.377048
-41.238735
-39.745506
-38.110703
-36.401440
-34.610962
-32.721878
-30.881355
-29.412683
-28.589739
-28.536758
-29.107344
-29.903971
-30.500334
-30.572742
-29.952745
-28.601374
-26.584560
-24.086584
-21.368347
-18.770142
-16.486101
-14.489340
-12.513256
-10.115124
-7.014849
-3.237347
0.839413
4.688190
7.969110
10.740574
13.387999
16.439917
20.232533
24.783546
29.773691
34.781605
39.505798
43.928696
48.305328
53.096817
58.716217
65.422356
73.117477
81.206924
88.635040
94.005798
95.866638
93.071709
85.155388
72.490494
56.169304
37.758072
18.919479
1.185775
-14.371048
-27.108606
-36.861126
-43.882725
-48.690739
-51.912823
-54.009010
-55.228065
-55.548149
-54.807159
-53.023968
-50.399292
-47.330151
-44.231842
-41.335571
-38.735435
-36.531956
-34.864044
-33.924095
-33.781746
-34.193745
-34.677822
-34.700733
-33.948132
-32.469162
-30.559822
-28.486927
-26.260902
-23.625954
-20.233280
-16.024532
-11.233124
-6.342457
-1.764290
2.341320
6.129131
9.855762
13.674576
17.623325
21.637119
25.621902
29.535740
33.292572
36.796764
39.896130
42.535534
44.874413
47.362411
50.704849
55.638218
62.630711
71.522476
81.395874
90.598839
97.059433
98.820900
94.605301
84.241539
68.689987
49.796509
29.661499
10.229027
-7.151161
-21.738800
-33.406021
-42.397072
-49.218170
-54.448082
-58.561684
-61.788170
-64.143631
-65.466743
-65.602165
-64.513329
-62.328766
-59.282494
-55.682327
-51.890778
-48.288765
-45.350868
-43.440216
-42.755157
-43.233017
-44.483597
-46.013885
-47.267120
-47.822853
-47.427574
-46.013092
-43.655022
-40.600258
-37.146118
-33.651993
-30.422340
-27.617569
-25.149101
-22.754898
-20.085312
-16.843102
-12.928314
-8.501122
-3.886368
0.535667
4.588028
8.343559
12.165077
16.464943
21.528847
27.326599
33.526093
39.646454
45.211044
50.013702
54.178268
58.140678
62.602608
68.247894
75.574684
84.471603
94.076698
102.768173
108.530136
109.441902
104.322670
93.072304
76.677345
56.876701
35.605400
14.560867
-5.032761
-22.383537
-37.025352
-48.766579
-57.618263
-63.892464
-68.103500
-70.829758
-72.496887
-73.245331
-72.932800
-71.378906
-68.560028
-64.737396
-60.437164
-56.272141
-52.776947
-50.272385
-48.810822
-48.305176
-48.516296
-49.079773
-49.574265
-49.562927
-48.717468
-46.959763
-44.524918
-41.864372
-39.374924
-37.120811
-34.702393
-31.433777
-26.799271
-20.790543
-14.029976
-7.502762
-2.106804
1.800476
4.452248
6.537430
8.714729
11.299347
14.237305
17.279671
20.265930
23.300171
26.699593
30.753860
35.502525
40.614738
45.535133
49.838654
53.531296
57.205032
61.860222
68.357140
76.843346
86.497948
95.590263
102.025932
103.986633
100.360573
90.998322
76.606880
58.545311
38.559784
18.480103
-0.067665
-15.985771
-28.815613
-38.736275
-46.173843
-51.523354
-54.978004
-56.459999
-56.046318
-54.038055
-50.952896
-47.318871
-43.426254
-39.282997
-34.779846
-29.997017
-25.387108
-21.583176
-19.175117
-18.329941
-18.734398
-19.722313
-20.561119
-20.742950
-20.055466
-18.486511
-16.131966
-13.047928
-9.227608
-4.737556
0.304398
5.655502
11.086731
16.425468
21.611427
26.689728
31.752335
36.866447
41.949074
46.872917
51.439186
55.555161
59.379295
63.324532
67.949135
73.739594
80.785728
88.636650
96.168457
101.783813
103.735893
100.598450
91.653091
77.122307
58.071907
36.206085
13.385956
-8.649582
-28.523651
-45.309799
-58.483856
-67.930801
-73.827515
-76.637909
-77.009567
-75.666748
-73.356689
-70.638596
-67.838715
-65.016968
-61.997910
-58.569290
-54.744446
-50.893127
-47.662292
-45.632706
-45.048447
-45.582352
-46.559067
-47.214859
-47.119400
-46.272614
-44.885330
-43.126556
-40.943512
-38.074875
-34.278549
-29.500153
-23.948914
-17.992661
-12.011063
-6.251968
-0.843597
4.214066
9.070953
13.930099
19.019989
24.494858
30.341156
36.396423
42.463272
48.406326
54.203384
59.902451
65.581650
71.311584
77.356415
84.131638
92.158585
101.641388
111.939758
121.432053
127.642731
127.997467
120.725708
105.610916
84.039352
58.519333
31.887970
6.475311
-16.248215
-35.612549
-51.455338
-63.874069
-73.084854
-79.453445
-83.519943
-85.941238
-87.301086
-87.878342
-87.573166
-86.089798
-83.183182
-78.964600
-73.946930
-68.940262
-64.709396
-61.768829
-60.262512
-60.011017
-60.612381
-61.572800
-62.378876
-62.542999
-61.768921
-59.948364
-57.250900
-53.924789
-50.271988
-46.516190
-42.787415
-39.174789
-35.777603
-32.729202
-30.042053
-27.544006
-24.986694
-22.152771
-18.958313
-15.584808
-12.318298
-9.320892
-6.630829
-4.060150
-1.431564
1.382721
4.333099
7.294006
10.126999
12.803497
15.412430
18.121872
21.095428
24.319351
27.625076
30.736115
33.462570
35.793045
37.985382
40.494019
43.765610
48.067108
53.305740
59.084473
64.838211
70.059586
74.562943
78.611221
82.948120
88.473953
95.997971
105.676163
116.765289
127.540268
135.559418
138.277313
133.748917
121.229843
101.327713
75.929459
47.553757
18.836533
-8.032440
-31.586411
-51.089050
-66.392471
-77.691147
-85.324631
-89.679886
-91.192856
-90.427002
-87.945724
-84.344055
-80.098160
-75.498688
-70.748306
-66.119812
-61.960587
-58.670441
-56.429153
-55.054153
-54.123810
-53.148636
-51.946671
-50.697128
-49.759491
-49.326096
-49.188065
-48.775726
-47.458649
-44.993149
-41.546616
-37.616638
-33.681183
-29.883026
-26.061569
-21.912643
-17.227631
-12.044617
-6.631485
-1.340195
3.526337
7.804520
11.585480
15.109695
18.688118
22.529770
26.750458
31.349121
36.330795
41.682281
47.367043
53.213120
59.001953
64.581032
70.090462
76.009613
83.008827
91.543152
101.452049
111.687019
120.437836
125.530334
125.000610
117.588280
103.055038
82.219231
56.885124
29.406662
2.360527
-21.986282
-42.022675
-56.986389
-66.942482
-72.543839
-74.740494
-74.579544
-72.920990
-70.315239
-66.931358
-62.725212
-57.586784
-51.636093
-45.291145
-39.334221
-34.519737
-31.384422
-30.032936
-30.153389
-31.204613
-32.685997
-34.157768
-35.255920
-35.550194
-34.513794
-31.700638
-26.991013
-20.793907
-14.000381
-7.620461
-2.382507
1.660400
5.113724
9.040237
14.360008
21.463982
30.004356
39.106277
47.739517
55.207306
61.337234
66.504089
71.354935
76.614853
82.946899
90.870056
100.632401
112.027512
124.081558
134.938278
141.970505
142.376648
133.958771
115.960983
89.479187
57.319992
23.181580
-9.277924
-37.363663
-59.757767
-76.434509
-88.055984
-95.495560
-99.496506
-100.712112
-99.764221
-97.429794
-94.455521
-91.267517
-87.806564
-83.650009
-78.330994
-71.882538
-64.893448
-58.478012
-53.741867
-51.309845
-51.107712
-52.417038
-54.145355
-55.205521
-54.805801
-52.644562
-48.947540
-44.351852
-39.632889
-35.463135
-32.131836
-29.583679
-27.444458
-25.305847
-22.852524
-19.965668
-16.566086
-12.542358
-7.762527
-2.225662
3.912079
10.304352
16.591080
22.588959
28.466644
34.606018
41.458633
49.228622
57.828125
66.844208
75.661270
83.713104
90.692902
96.671463
102.149002
108.076752
115.517166
125.280319
137.362427
150.507126
162.176529
168.987167
167.608810
155.820496
133.344711
102.022736
65.325302
27.375900
-8.121033
-38.528076
-62.567352
-80.155624
-92.050247
-99.431671
-103.606842
-105.811111
-106.919174
-107.401382
-107.276627
-106.246353
-103.925278
-100.094070
-94.899460
-88.922302
-82.944183
-77.789856
-74.107101
-72.143814
-71.795258
-72.595444
-73.914246
-75.085327
-75.619232
-75.271973
-74.034866
-72.109772
-69.718918
-66.955200
-63.825668
-60.249451
-56.189148
-51.796906
-47.433060
-43.444489
-40.095413
-37.402328
-35.090317
-32.811493
-30.207230
-27.105835
-23.535416
-19.669067
-15.701782
-11.792130
-7.977646
-4.274811
-0.670700
2.765167
5.918533
8.757156
11.443909
14.278198
17.538544
21.280121
25.340942
29.316971
32.892563
36.024902
38.866333
41.708504
44.746361
48.058418
51.742104
55.956291
60.921867
66.710930
73.131134
79.609367
85.463409
90.217644
93.863777
96.983978
100.590065
105.732674
113.169235
122.871010
133.771042
143.710495
149.906525
149.528107
140.625061
122.780853
97.233803
66.538536
33.842422
2.071938
-26.367996
-49.961472
-67.986412
-80.513435
-88.219383
-92.207382
-93.697838
-93.633743
-92.567924
-90.627800
-87.703232
-83.727432
-78.786125
-73.222572
-67.547058
-62.328377
-58.076294
-55.112503
-53.563278
-53.317154
-54.016815
-55.145882
-56.101784
-56.372643
-55.455078
-53.094650
-49.317085
-44.419258
-38.968285
-33.591942
-28.753952
-24.591118
-20.920296
-17.435364
-13.877243
-10.287468
-6.794067
-3.504349
-0.326218
3.079723
7.156349
12.136051
17.990921
24.255199
30.299007
35.578053
39.970516
43.799896
47.749386
52.505409
58.365799
65.037506
71.793457
77.762482
82.486610
86.162437
89.733337
94.444366
101.297478
110.492424
121.103378
131.118439
137.801788
138.400696
130.827972
114.303741
89.668716
59.187611
26.022297
-6.526409
-35.699150
-59.718388
-77.785736
-89.998894
-96.937645
-99.520798
-98.715851
-95.544472
-90.874603
-85.476700
-79.904999
-74.510002
-69.428146
-64.639091
-60.038605
-55.529381
-51.163231
-47.275589
-44.335388
-42.834854
-42.974953
-44.447372
-46.436325
-47.905960
-47.973785
-46.267067
-42.940475
-38.535515
-33.709808
-28.970490
-24.540569
-20.487366
-16.792027
-13.403492
-10.280327
-7.316269
-4.384548
-1.321404
2.061424
5.925976
10.396843
15.480568
21.141491
27.197689
33.436367
39.698391
45.855373
51.834953
57.618301
63.230015
68.824219
74.568382
80.612068
87.033348
93.889313
101.248840
109.344948
118.363968
128.145340
137.767151
145.417831
148.622421
145.018036
132.979813
112.289642
84.261703
51.344288
16.637966
-16.805393
-46.437447
-70.542297
-88.323311
-99.908173
-106.202095
-108.479973
-108.132935
-106.375000
-104.104713
-101.781189
-99.451210
-96.844360
-93.555069
-89.290176
-84.139389
-78.597549
-73.432449
-69.242485
-66.245445
-64.214149
-62.704124
-61.382767
-60.257614
-59.546432
-59.378578
-59.458923
-59.156693
-57.743729
-54.870399
-50.787193
-46.155960
-41.690857
-37.736496
-34.160728
-30.568581
-26.645042
-22.394253
-18.164772
-14.410595
-11.417988
-9.180378
-7.406887
-5.661182
-3.583164
-1.020859
1.969889
5.122976
8.155500
10.924308
13.449934
15.903377
18.507858
21.409742
24.674496
28.332878
32.402611
36.878490
41.676949
46.553299
51.167088
55.299549
58.978352
62.536118
66.428757
70.914070
75.908417
80.994293
85.694054
89.733620
93.395370
97.336617
102.438766
109.280914
117.674789
126.402771
133.295410
135.730484
131.443909
119.261070
99.362694
73.254410
43.290394
12.020218
-18.197330
-45.430836
-68.244019
-85.760544
-97.692398
-104.371552
-106.607300
-105.555634
-102.389420
-98.070427
-93.199982
-88.079407
-82.798477
-77.365288
-71.795883
-66.160408
-60.575871
-55.304680
-50.624069
-46.860016
-44.268490
-43.034790
-43.066650
-44.078869
-45.526192
-46.745312
-47.174282
-46.425835
-44.408226
-41.343102
-37.560551
-33.439632
-29.368217
-25.771671
-22.887527
-20.935326
-19.881027
-19.466423
-19.247070
-18.816887
-17.814751
-16.074570
-13.445198
-9.863922
-5.399811
-0.287842
4.994492
9.883209
13.886063
16.832924
18.872658
20.423477
21.941559
23.625961
25.579498
27.676254
29.857483
32.166428
34.792297
37.928772
41.696579
46.013138
50.594238
55.092743
59.193344
62.772293
66.206818
70.171661
75.412598
82.304886
90.535004
98.916901
105.689240
108.872131
106.858475
98.788071
84.680618
65.472748
42.794708
18.716736
-4.657852
-25.484375
-42.464752
-54.990524
-63.124710
-67.445541
-68.763550
-67.946213
-65.676041
-62.365845
-58.242874
-53.397903
-47.939941
-42.082001
-36.091660
-30.322723
-25.087708
-20.641510
-17.219452
-14.968994
-13.952606
-14.034698
-14.840469
-15.791199
-16.285568
-15.864731
-14.408646
-12.135956
-9.436081
-6.698288
-4.132401
-1.692139
0.834412
3.660934
6.889816
10.358704
13.772263
16.774399
19.299957
21.516891
23.833801
26.708252
30.341324
34.564438
38.929230
42.955444
46.502258
49.883102
53.722580
58.663635
65.134399
73.108597
82.207062
91.732193
100.612244
107.391876
110.323349
107.793457
98.809769
83.400772
62.758606
38.856598
14.003860
-9.784088
-30.978699
-48.645035
-62.349625
-72.093826
-78.237137
-81.393173
-82.006958
-80.427063
-76.804779
-71.402390
-64.715591
-57.562317
-50.833832
-45.124725
-40.671860
-37.336472
-34.914536
-33.341537
-32.535507
-32.388596
-32.639099
-32.941574
-32.961365
-32.621017
-31.962219
-31.088760
-29.974472
-28.545135
-26.751373
-24.692780
-22.448303
-20.051041
-17.252457
-13.710907
-9.176010
-3.713882
2.230698
8.009338
13.111710
17.250473
20.553452
23.347900
26.182587
29.547485
33.793549
38.917114
44.519104
49.916382
54.475174
57.933823
60.589081
63.234436
66.815338
72.069321
79.314972
88.260468
98.111374
107.496567
114.620483
117.403984
113.909142
102.896935
84.314034
59.514145
31.076492
2.141884
-24.313995
-46.123116
-62.339325
-73.133034
-79.415672
-82.510574
-83.634438
-83.710655
-83.242645
-82.371323
-80.927399
-78.644341
-75.207909
-70.540405
-64.873154
-58.789032
-53.023849
-48.292747
-45.015137
-43.273071
-42.896828
-43.569489
-44.914352
-46.489937
-47.689919
-47.857414
-46.532944
-43.647812
-39.621635
-35.259270
-31.297981
-28.176300
-25.886612
-24.143616
-22.604973
-21.080963
-19.508080
-17.900627
-16.264671
-14.596153
-12.817574
-10.949730
-8.972382
-6.925407
-4.897697
-2.985847
-1.337723
0.019669
1.297279
2.875381
5.218658
8.561867
12.825821
17.472298
21.870529
25.531639
28.330009
30.529716
32.653542
35.268585
38.839806
43.535736
49.236588
55.450424
61.506927
66.653534
70.350647
72.486023
73.388687
73.803040
74.753799
77.194794
81.977692
89.226639
98.106018
106.531792
111.556297
110.118851
100.169609
81.513527
56.050629
27.137085
-1.495125
-26.812347
-47.027908
-61.706795
-71.400513
-77.141777
-80.040520
-81.158127
-81.271538
-80.857422
-80.013458
-78.602219
-76.274315
-72.738235
-67.736168
-61.326874
-53.986809
-46.648392
-40.488823
-36.594414
-35.460876
-36.808601
-39.544159
-42.277702
-43.853027
-43.752304
-42.035950
-39.270309
-36.050247
-32.828674
-29.803993
-27.096123
-24.788818
-22.987122
-21.773651
-21.110229
-20.746536
-20.286728
-19.110687
-16.795288
-13.249252
-8.934586
-4.685135
-1.406036
0.456284
1.174072
1.565308
2.635345
5.009766
8.615906
12.883926
17.020554
20.450882
23.062820
25.130585
27.096039
29.318130
31.977524
35.035629
38.305176
41.564163
44.523239
47.029373
49.023865
50.710419
52.521744
55.093857
59.027298
64.674362
71.863739
79.652954
86.451553
90.295685
89.375565
82.660446
70.093811
52.716080
32.274109
10.839874
-9.632584
-27.546997
-41.837601
-51.980713
-58.020737
-60.549835
-60.474365
-58.731049
-56.035004
-52.791611
-49.047058
-44.714020
-39.819855
-34.484344
-29.014832
-23.758743
-19.079269
-15.333969
-12.871445
-11.971054
-12.753708
-14.973312
-17.892563
-20.485519
-21.794846
-21.329666
-19.362762
-16.665878
-14.091599
-11.936157
-9.893112
-7.213333
-3.365784
1.523422
6.662811
11.047729
14.174500
16.382431
18.651566
21.998932
26.915863
33.093475
39.669525
45.776581
50.902802
55.068039
58.615082
62.025558
65.745850
70.169617
75.617996
82.149506
89.380432
96.217224
100.940811
101.567307
96.408661
84.747116
67.109940
45.188438
21.306374
-2.055084
-22.946129
-40.141937
-53.205261
-62.270020
-67.758583
-70.251968
-70.400513
-68.904251
-66.414490
-63.518425
-60.494560
-57.307686
-53.719200
-49.487473
-44.626831
-39.521484
-34.836746
-31.252281
-29.221588
-28.725502
-29.366196
-30.476135
-31.492485
-32.023628
-31.940117
-31.237694
-29.970230
-28.218395
-25.993179
-23.313137
-20.221180
-16.712955
-12.826488
-8.545868
-3.896873
1.031216
6.061752
10.991535
15.677013
20.103748
24.422497
28.848072
33.540440
38.566303
43.830574
49.169079
54.418922
59.508224
64.458267
69.598312
75.416931
82.441605
90.788712
99.848549
108.016602
113.094360
112.889816
106.176788
93.034035
74.694298
53.022228
29.801826
6.376851
-16.210064
-37.028145
-55.053627
-69.344826
-79.370163
-85.259338
-87.783661
-87.968857
-86.742409
-84.727585
-82.152847
-79.075081
-75.446281
-71.243835
-66.590683
-61.773098
-57.225788
-53.487370
-50.804703
-49.102615
-47.989582
-47.063358
-46.105316
-45.304386
-44.941540
-45.180191
-45.782848
-46.149353
-45.676308
-44.062904
-41.411518
-38.163368
-34.768162
-31.521931
-28.407093
-25.336662
-22.256344
-19.238640
-16.458427
-14.106979
-12.175213
-10.401730
-8.244873
-5.138798
-0.832886
4.428135
9.924580
14.759708
18.354961
20.728806
22.492203
24.473747
27.383425
31.508600
36.846626
43.098396
49.921440
56.923901
63.655201
69.618729
74.532669
78.519272
82.265152
86.819931
93.240883
101.942299
112.426132
123.146286
131.828415
136.003143
133.598450
123.537697
105.968933
82.243896
54.589027
25.617748
-2.225689
-27.071400
-47.706699
-63.694515
-75.135345
-82.606018
-86.849792
-88.723167
-88.987358
-88.181389
-86.564056
-84.102440
-80.644035
-76.091690
-70.544106
-64.419388
-58.307541
-52.879448
-48.595032
-45.687660
-44.051376
-43.384148
-43.310158
-43.557060
-43.940414
-44.378990
-44.731422
-44.737480
-44.095863
-42.581764
-40.228882
-37.359764
-34.413239
-31.821831
-29.709938
-27.983574
-26.278023
-24.345215
-22.057449
-19.488800
-16.830360
-14.259789
-11.744835
-9.166969
-6.367577
-3.274933
-0.000076
3.222095
6.205887
8.909744
11.662189
14.911358
18.999886
23.848804
28.967739
33.643761
37.389305
40.215759
42.580090
45.129509
48.235313
51.942680
55.963799
60.035614
64.143280
68.559402
73.833328
80.455315
88.715622
98.311020
108.273987
116.903717
122.054611
121.556999
114.010147
99.143738
78.021118
52.655640
25.487717
-1.237137
-25.706535
-46.713657
-63.565548
-75.999359
-84.103134
-88.284424
-89.064026
-87.102219
-83.082825
-77.741570
-71.776619
-65.799477
-60.233353
-55.246765
-50.885086
-47.193466
-44.253456
-42.228569
-41.100769
-40.679115
-40.550446
-40.353500
-39.921577
-39.400688
-39.064636
-39.016800
-39.085075
-38.824593
-37.796890
-35.791245
-32.851051
-29.333878
-25.653336
-22.084770
-18.750580
-15.503567
-12.070782
-8.192638
-3.726997
1.233856
6.416290
11.361965
15.695683
19.276836
22.295349
25.299648
28.896935
33.512905
39.186607
45.539646
51.964981
57.893101
63.023846
67.442169
71.656357
76.339844
82.129471
89.424530
98.193726
107.818550
117.035614
123.952606
126.361877
122.302750
110.634277
91.595238
66.762405
38.708683
10.270290
-16.128342
-38.804958
-57.028820
-70.689713
-80.106689
-85.750603
-88.204842
-88.018517
-85.645920
-81.368996
-75.430702
-68.143127
-60.044411
-51.922928
-44.640511
-38.916573
-35.078918
-33.060455
-32.498055
-32.920868
-33.908142
-35.024422
-35.837067
-35.869240
-34.749435
-32.279549
-28.713745
-24.642311
-20.758217
-17.616272
-15.317711
-13.454643
-11.249352
-7.749611
-2.326050
5.055786
13.695480
22.444702
30.047264
35.764099
39.694977
42.754326
46.171967
50.948799
57.355164
64.913490
72.699532
79.797554
85.792953
90.986374
96.276520
102.724678
111.098038
121.344040
132.315704
141.904022
147.374847
146.232162
136.754120
118.560471
92.663940
61.291321
27.315308
-6.261490
-36.836151
-62.575134
-82.558197
-96.796478
-105.991867
-111.144592
-113.354218
-113.579453
-112.541672
-110.576385
-107.682739
-103.585785
-98.073441
-91.254471
-83.785233
-76.669830
-70.951523
-67.170059
-65.167145
-64.322647
-63.885239
-63.393524
-62.749268
-61.995468
-61.159790
-60.091904
-58.619888
-56.685501
-54.499435
-52.246017
-50.014130
-47.653549
-44.898239
-41.619034
-37.906189
-34.061859
-30.448563
-27.229691
-24.357071
-21.598770
-18.756210
-15.666168
-12.295090
-8.677505
-4.909241
-1.002838
2.980774
7.103653
11.446671
16.079376
21.068390
26.320251
31.632599
36.719528
41.312241
45.366638
49.083801
52.911774
57.293365
62.531387
68.573792
75.053818
81.386765
87.094772
91.964844
96.267929
100.665100
106.107071
113.458527
123.233719
135.172958
148.003876
159.397781
166.289948
165.594482
155.125061
134.319107
104.665543
69.344925
32.310135
-2.745087
-33.246582
-57.995743
-76.963348
-90.813660
-100.434937
-106.680466
-110.247391
-111.724411
-111.508362
-109.828354
-106.770554
-102.383896
-96.714157
-90.087418
-83.043182
-76.323212
-70.728516
-66.928421
-65.227081
-65.441223
-66.832291
-68.362152
-69.031952
-68.325729
-66.349609
-63.799606
-61.454254
-59.787888
-58.716324
-57.698288
-56.039200
-53.304474
-49.468231
-44.911148
-40.198166
-35.852814
-32.140121
-29.089661
-26.509827
-24.122086
-21.735519
-19.184631
-16.433060
-13.530441
-10.393890
-6.894272
-2.864594
1.762192
6.897598
12.166840
17.094620
21.239395
24.389771
26.651260
28.417358
30.240845
32.797226
36.599716
41.780289
48.020981
54.689407
61.060593
66.648064
71.408180
75.655327
79.917313
84.756775
90.709045
98.371773
108.173058
120.111000
133.265656
145.524994
153.819427
154.917511
146.520111
128.103806
101.185081
68.813477
34.520432
1.489876
-28.065796
-52.849892
-72.309448
-86.306602
-95.076019
-99.188225
-99.649750
-97.617424
-94.147820
-89.897667
-85.139153
-79.802879
-73.805939
-67.357040
-60.876213
-54.961853
-50.091805
-46.511650
-44.221169
-43.061417
-42.881393
-43.465469
-44.509514
-45.471542
-45.751854
-44.793640
-42.400520
-38.724693
-34.261070
-29.535065
-24.862244
-20.269371
-15.572929
-10.553680
-5.166298
0.383957
5.715134
10.530106
14.635307
18.187981
21.479340
24.995949
29.134750
34.071327
39.669670
45.599892
51.467552
57.098572
62.602798
68.273323
74.419540
81.287582
89.023232
97.743568
107.488869
117.994476
128.311844
136.668121
140.519409
137.337921
125.341698
104.338150
75.863060
42.883163
8.915367
-22.729637
-49.605957
-70.472404
-85.256096
-94.644577
-99.762222
-101.547081
-100.683144
-97.569611
-92.622734
-86.396469
-79.666176
-73.121956
-67.127403
-61.670357
-56.529198
-51.598152
-47.157013
-43.745537
-41.884521
-41.721558
-42.936188
-44.783371
-46.433525
-47.200363
-46.687569
-44.896858
-42.077179
-38.657219
-35.067062
-31.494461
-27.921616
-24.151848
-20.060883
-15.750694
-11.689713
-8.318565
-5.772003
-3.604904
-0.921425
3.159874
9.011246
16.332367
24.250267
31.724510
37.957222
42.788864
46.524647
49.855480
53.457687
57.756443
62.780296
68.306831
74.006638
79.735855
85.528931
91.562088
98.082016
105.304626
113.423828
122.555725
132.552856
142.729660
151.500916
156.456787
154.713257
143.913040
123.073250
93.204659
57.217651
19.170090
-16.853294
-47.741508
-71.839714
-88.982101
-100.012970
-106.225777
-109.067619
-109.676796
-108.972755
-107.542847
-105.707382
-103.444969
-100.534904
-96.595467
-91.417732
-85.110748
-78.206429
-71.543663
-66.048424
-62.330582
-60.520164
-60.219910
-60.744820
-61.372879
-61.564873
-61.066765
-59.914207
-58.257744
-56.249901
-53.953262
-51.364304
-48.389771
-44.913422
-40.904228
-36.433990
-31.686844
-27.011299
-22.758308
-19.233994
-16.566925
-14.716431
-13.405212
-12.212280
-10.557716
-7.979637
-4.286003
0.259758
5.003246
9.164883
12.313301
14.593479
16.687328
19.428356
23.352936
28.360062
33.815315
38.969376
43.404549
47.196716
50.963699
55.315147
60.566414
66.563484
72.704834
78.343048
83.125252
87.267120
91.662476
97.509483
105.833710
116.878914
129.894226
143.069458
153.933533
159.865448
158.638092
148.783508
129.947174
103.077827
70.437096
35.232101
0.876596
-29.783735
-55.053833
-74.580147
-88.869873
-98.819656
-105.213333
-108.620087
-109.466217
-108.218224
-105.245804
-100.872498
-95.299324
-88.674866
-81.324295
-73.925095
-67.326660
-62.250343
-59.082706
-57.735226
-57.778019
-58.673672
-59.766727
-60.438835
-60.162560
-58.648613
-56.013454
-52.794777
-49.729584
-47.413216
-45.958069
-44.881237
-43.329880
-40.588478
-36.313477
-30.785271
-24.658897
-18.685875
-13.388681
-8.924819
-5.131101
-1.647806
1.979464
6.114892
11.014668
16.645121
22.815924
29.142380
35.239571
40.872028
46.030281
50.912640
55.802628
60.842472
65.923370
70.758743
75.026077
78.540390
81.409447
84.056427
87.165329
91.504791
97.683014
105.826187
115.400711
124.961578
132.347427
135.000122
130.679504
117.995522
97.064728
69.433769
37.863708
5.653515
-24.087772
-49.068100
-68.104683
-81.023567
-88.388565
-91.151001
-90.335503
-86.944855
-81.910965
-76.080879
-70.134727
-64.435234
-59.006958
-53.713207
-48.395260
-43.139137
-38.390549
-34.784019
-32.872208
-32.779072
-34.055618
-35.764057
-36.878220
-36.666557
-34.924248
-31.969524
-28.337311
-24.604145
-21.062218
-17.750473
-14.505585
-11.108074
-7.327698
-3.000347
1.937035
7.403290
13.237362
19.187248
25.095234
30.953751
36.886852
43.039944
49.418987
55.832542
62.085697
68.008171
73.595871
78.990074
84.419250
90.212624
96.807892
104.728172
114.240669
125.016891
135.723740
144.049774
147.196381
142.649765
128.973709
106.294388
76.311699
41.876137
6.294276
-27.345516
-56.726086
-80.523392
-98.356010
-110.468506
-117.275826
-119.353012
-117.434860
-112.626717
-106.328949
-100.029816
-94.723206
-90.600769
-87.074577
-83.229927
-78.536896
-73.165146
-67.894882
-63.677269
-61.183296
-60.509766
-61.234276
-62.661480
-64.032639
-64.705292
-64.184189
-62.251682
-58.949928
-54.627346
-49.693584
-44.598976
-39.672390
-35.100216
-30.983864
-27.321518
-24.024273
-20.882248
-17.608778
-13.939840
-9.810125
-5.475487
-1.280714
2.467091
5.752571
8.843102
12.119624
15.868883
20.108633
24.586275
28.939169
32.936447
36.564003
40.035889
43.700314
47.857891
52.648476
58.030155
63.886673
69.981438
76.102234
81.966125
87.339005
92.129715
96.519012
101.036224
106.457771
113.508331
122.429016
132.528824
142.057068
148.329346
148.423874
139.981934
121.989189
95.263885
62.307838
26.692013
-7.848844
-38.315105
-62.935654
-81.298012
-93.948555
-101.954796
-106.487259
-108.513062
-108.761284
-107.724426
-105.732719
-102.961975
-99.384018
-94.890892
-89.375732
-82.946922
-76.055099
-69.461525
-64.016251
-60.341049
-58.612453
-58.475277
-59.217377
-60.061005
-60.410446
-59.969707
-58.692398
-56.708122
-54.128510
-51.125160
-47.811096
-44.320229
-40.810745
-37.453899
-34.330322
-31.447935
-28.596827
-25.481909
-21.870811
-17.737183
-13.335854
-9.063892
-5.287584
-2.156906
0.434303
2.726875
4.924194
7.078922
9.148643
11.090054
12.913433
14.664715
16.380943
17.997635
19.479263
20.900383
22.476913
24.507652
27.218010
30.619385
34.703056
39.368401
44.557671
50.157387
56.003632
61.769592
67.147713
71.904541
76.026337
79.750175
83.555473
88.066071
93.959663
101.551697
110.419258
119.160332
125.500900
126.869041
121.240097
107.781334
87.173424
61.327873
32.820076
4.265564
-22.108635
-44.702019
-62.536270
-75.273338
-83.124496
-86.720108
-86.909012
-84.615952
-80.660049
-75.740738
-70.333183
-64.735855
-58.943596
-52.821617
-46.269012
-39.417999
-32.771652
-27.115410
-23.193199
-21.369148
-21.388138
-22.452110
-23.540199
-23.906960
-23.263710
-21.824554
-19.998077
-18.086082
-16.093933
-13.796394
-11.004753
-7.683327
-4.078133
-0.508331
2.830582
6.005043
9.303940
13.017464
17.222420
21.780411
26.466026
31.120056
35.890594
41.003517
46.589859
52.529594
58.380005
63.634377
68.051514
71.852005
75.776642
80.782074
87.635933
96.478142
106.544464
116.060722
122.605316
123.537453
116.795067
101.493568
78.435768
49.950890
19.326805
-10.091415
-35.721725
-56.214546
-71.325562
-81.609550
-87.917534
-91.065788
-91.771812
-90.621422
-88.121780
-84.739044
-80.812248
-76.494301
-71.771027
-66.594681
-61.020092
-55.380642
-50.251175
-46.336815
-44.189766
-43.934383
-45.074524
-46.629780
-47.403194
-46.551624
-43.791477
-39.572960
-34.646267
-29.790047
-25.444324
-21.662163
-18.205952
-14.727318
-10.951767
-6.769386
-2.291092
2.295113
6.858841
11.381123
16.035389
21.011147
26.427410
32.218391
38.163960
43.983536
49.583035
55.013462
60.414825
65.831085
71.188194
76.379143
81.536537
87.186905
94.100388
102.764214
112.866089
122.917664
130.576721
133.116699
128.322540
115.095726
93.846214
66.323257
35.174809
3.344289
-26.519360
-52.403500
-73.106697
-88.183617
-97.732437
-102.327629
-102.888443
-100.657051
-96.936913
-92.902878
-89.264206
-86.209709
-83.465347
-80.573929
-77.190842
-73.317276
-69.130524
-64.986908
-61.248566
-58.192547
-55.909889
-54.324623
-53.142212
-52.001202
-50.572617
-48.767559
-46.747105
-44.807751
-43.037811
-41.297871
-39.240292
-36.550140
-33.140766
-29.242132
-25.244011
-21.463854
-18.015408
-14.725371
-11.326188
-7.638248
-3.544342
0.907909
5.664976
10.643312
15.787846
21.034426
26.260988
31.280710
35.922585
40.098289
43.857117
47.337349
50.842491
54.582153
58.653698
62.886761
67.031052
70.841827
74.301781
77.581902
81.120682
85.414093
90.992447
98.191750
107.016975
116.805328
125.903572
131.792847
131.522797
122.756721
104.703949
78.597473
47.467110
15.150745
-14.827581
-40.169708
-59.929939
-74.228279
-83.734169
-89.321976
-91.900871
-92.446602
-91.798714
-90.545448
-88.845154
-86.446991
-82.898331
-77.942902
-71.596489
-64.315582
-56.812485
-49.979347
-44.644169
-41.428871
-40.484493
-41.422611
-43.388191
-45.295513
-46.348053
-46.230400
-45.139973
-43.500038
-41.642937
-39.636955
-37.250450
-34.276066
-30.656664
-26.637377
-22.620762
-19.004019
-15.978291
-13.494801
-11.264065
-9.004482
-6.502701
-3.671543
-0.533455
2.826107
6.434711
10.362198
14.707417
19.529560
24.773819
30.265095
35.911003
41.650429
47.478024
53.358147
59.142265
64.659103
69.732544
74.429031
79.094872
84.358131
90.871071
98.896828
108.092972
117.170837
124.049225
126.241631
121.601349
108.958862
88.662407
62.474510
33.195175
3.915794
-22.754436
-44.997772
-61.888962
-73.382126
-79.964836
-82.544029
-82.263321
-80.220978
-77.288261
-74.011398
-70.572357
-66.894775
-62.806393
-58.242050
-53.346783
-48.461071
-44.039314
-40.568771
-38.380272
-37.543846
-37.771679
-38.545799
-39.164318
-38.987804
-37.580727
-34.876610
-31.065266
-26.554585
-21.814438
-17.180569
-12.771641
-8.358341
-3.604027
1.709236
7.564480
13.594166
19.313255
24.367630
28.730949
32.641289
36.461563
40.408188
44.488297
48.517288
52.319984
55.868607
59.295174
62.874733
66.950714
71.953049
78.322968
86.390259
96.072296
106.592285
116.279755
122.807381
123.669212
116.888672
101.703308
78.931656
50.749554
20.204872
-9.613163
-36.237808
-58.146385
-74.828552
-86.417191
-93.374161
-96.269852
-95.747025
-92.512657
-87.404343
-81.221848
-74.602264
-67.899765
-61.224079
-54.608997
-48.273430
-42.674809
-38.382412
-35.839863
-35.019821
-35.388458
-36.003159
-35.892906
-34.419495
-31.532742
-27.658211
-23.426306
-19.443783
-16.011816
-13.083458
-10.451254
-7.860563
-5.107286
-2.087749
1.254658
4.921949
8.985708
13.513498
18.550570
24.083548
30.053316
36.306305
42.689610
49.047363
55.255238
61.170715
66.664383
71.717003
76.538506
81.683029
87.927643
96.037064
106.285812
118.104813
129.843765
139.043121
142.873581
138.889511
125.787041
103.735687
74.534874
41.122166
6.990219
-24.734829
-51.815277
-73.230148
-88.989311
-99.765022
-106.440460
-109.857590
-110.786568
-109.920822
-107.809708
-104.811554
-100.968643
-96.095108
-89.986328
-82.733322
-74.868652
-67.356186
-61.256805
-57.287544
-55.556923
-55.516457
-56.203545
-56.697624
-56.410835
-55.202339
-53.279442
-50.953697
-48.446617
-45.847839
-43.125626
-40.284866
-37.318016
-34.306599
-31.274677
-28.238640
-25.174320
-22.067432
-18.999401
-16.001102
-13.118504
-10.370056
-7.653851
-4.874046
-1.935295
1.226250
4.590977
8.017120
11.365421
14.494617
17.376507
20.072454
22.739557
25.556984
28.627661
31.968578
35.520126
39.296009
43.406586
48.086811
53.582870
59.942837
66.897751
73.882874
80.328888
85.849716
90.531158
94.936844
99.997025
106.658859
115.423859
126.025063
137.124344
146.393494
150.996124
148.267487
136.454025
115.387726
86.566666
52.833488
17.672270
-15.660036
-44.643414
-67.852684
-84.896957
-96.217964
-102.815018
-105.901276
-106.631653
-105.821335
-103.926926
-101.054367
-97.150047
-92.205765
-86.425827
-80.199188
-74.031952
-68.405701
-63.640694
-59.893753
-57.131332
-55.211498
-53.869164
-52.868118
-51.923714
-50.834229
-49.435726
-47.689281
-45.623768
-43.371307
-41.112354
-39.011185
-37.121990
-35.382099
-33.601143
-31.538231
-28.989910
-25.892765
-22.265736
-18.242889
-14.006893
-9.726675
-5.536367
-1.448908
2.639906
6.888266
11.332644
15.888180
20.278316
24.213270
27.610493
30.697918
33.996227
38.017128
43.112019
49.199814
55.885185
62.585831
68.790886
74.207024
78.891411
83.231133
87.929665
93.815552
101.498749
110.881546
120.848831
129.193939
133.133377
130.002380
118.184250
97.700943
70.310074
38.995827
7.140577
-22.334030
-47.440269
-67.314049
-81.932808
-91.727470
-97.243149
-99.028702
-97.679955
-93.919670
-88.627846
-82.655830
-76.600090
-70.694572
-64.854012
-58.909458
-52.909702
-47.169323
-42.160210
-38.319313
-35.813656
-34.522095
-34.068119
-33.959431
-33.715233
-32.932751
-31.336113
-28.839603
-25.485855
-21.471418
-16.996401
-12.148796
-6.886743
-1.176185
4.869744
10.854774
16.174793
20.191818
22.607971
23.699913
24.248648
25.375580
28.024036
32.625534
38.930443
46.131893
53.259262
59.606819
64.993919
69.840027
74.952789
81.217789
89.230637
98.995575
109.660057
119.473793
125.908791
126.198814
118.123093
100.917168
75.783875
45.642700
14.309951
-14.737716
-39.223488
-58.353477
-72.477333
-82.382980
-88.709000
-91.899101
-92.295326
-90.357483
-86.781631
-82.270348
-77.217812
-71.625183
-65.182098
-57.665600
-49.273445
-40.754608
-33.189804
-27.630615
-24.691555
-24.227497
-25.419140
-27.101746
-28.240673
-28.248837
-27.164454
-25.424759
-23.540154
-21.772678
-19.967394
-17.699467
-14.454231
-10.000193
-4.432384
1.811737
8.185324
14.135050
19.383924
23.971394
28.252399
32.757195
37.903248
43.803986
50.176262
56.552322
62.568604
68.110954
73.514557
79.306053
86.157700
94.602432
104.874809
116.724472
129.270996
140.781113
148.780411
150.502960
143.558273
126.779922
100.764488
67.825920
31.473690
-4.477505
-36.830997
-63.507484
-83.711205
-97.759041
-106.568771
-111.336372
-113.201965
-113.099052
-111.687920
-109.380737
-106.367279
-102.631882
-98.112099
-92.720772
-86.540169
-79.922729
-73.443336
-67.809845
-63.601974
-61.113991
-60.185600
-60.334862
-60.809898
-60.873482
-60.045181
-58.223846
-55.731552
-53.121986
-50.850662
-49.084648
-47.570290
-45.767677
-43.188469
-39.592209
-35.139374
-30.309593
-25.571274
-21.275871
-17.491364
-14.086716
-10.916996
-7.867592
-4.903172
-1.971024
0.992786
4.085526
7.411552
11.045872
14.998066
19.201893
23.611353
28.123703
32.675568
37.121323
41.313530
45.168861
48.715843
52.195900
55.956745
60.309231
65.368317
70.947586
76.612755
81.881180
86.387573
90.101913
93.405426
97.023552
101.957451
109.083801
118.847916
130.771866
143.203278
153.393372
157.991180
154.021667
139.831558
115.718933
83.912857
47.966228
11.700909
-21.708166
-50.224945
-73.055405
-90.185028
-102.057243
-109.260010
-112.496628
-112.662338
-110.792183
-107.892151
-104.711411
-101.457794
-97.845398
-93.323700
-87.455475
-80.231468
-72.224121
-64.436325
-57.970764
-53.612896
-51.627659
-51.569160
-52.584278
-53.687042
-54.096870
-53.478252
-51.915657
-49.728268
-47.254025
-44.615868
-41.757187
-38.477989
-34.691677
-30.378403
-25.682808
-20.783138
-15.879145
-11.137951
-6.677286
-2.552845
1.200298
4.584656
7.616439
10.366599
12.961865
15.610552
18.467569
21.598886
24.849155
27.963787
30.702847
33.010731
35.084610
37.360386
40.299309
44.185795
49.035191
54.543427
60.217083
65.561043
70.223213
74.219910
78.014122
82.529732
88.852730
97.800903
109.420616
122.631157
135.183228
144.168640
146.674423
140.653748
125.469925
102.061020
72.695404
40.319641
7.871584
-22.213238
-48.232033
-69.209114
-84.821648
-95.202148
-100.948265
-103.029167
-102.626160
-100.835518
-98.436417
-95.653564
-92.271667
-87.894035
-82.271980
-75.530106
-68.178368
-60.958973
-54.649239
-49.876736
-46.976704
-45.944160
-46.338444
-47.350277
-48.072353
-47.798706
-46.366772
-44.180397
-41.972126
-40.423687
-39.767002
-39.624161
-39.199425
-37.600498
-34.253990
-29.085632
-22.655655
-15.876994
-9.644817
-4.501886
-0.465134
2.949343
6.356050
10.179140
14.377539
18.492399
21.977257
24.646755
26.833824
29.359810
33.093719
38.424915
45.065060
52.171787
58.831562
64.513947
69.381012
74.247406
80.200798
88.092384
98.093971
109.552887
121.035225
130.593384
136.094681
135.631180
127.783524
112.065720
89.128403
60.775547
29.695248
-1.082424
-28.847858
-51.667007
-68.667480
-79.887581
-85.994576
-87.933716
-86.721512
-83.268051
-78.370010
-72.648552
-66.453255
-59.918831
-53.113361
-46.162773
-39.377155
-33.200146
-28.088562
-24.324440
-21.973240
-20.876801
-20.824219
-21.546684
-22.699688
-23.808128
-24.320892
-23.641113
-21.363686
-17.436550
-12.211266
-6.287407
-0.251949
5.523891
10.963341
16.279465
21.823336
27.856562
34.403961
41.177193
47.697609
53.477329
58.267509
62.218216
65.806839
69.740685
74.707085
81.318291
90.007698
100.857178
113.349838
126.111687
136.824005
142.568634
140.499649
128.830261
107.433357
78.136826
44.135132
9.198737
-23.319033
-51.124187
-73.184525
-89.485275
-100.656082
-107.520409
-110.848572
-111.289299
-109.433701
-105.840904
-101.072800
-95.582985
-89.566025
-82.956589
-75.674484
-67.862671
-60.056782
-53.168610
-48.179306
-45.704159
-45.689732
-47.356590
-49.513638
-50.964100
-50.921028
-49.138824
-45.864403
-41.586777
-36.775887
-31.705070
-26.401199
-20.704941
-14.425331
-7.517372
-0.234657
6.984604
13.704849
19.750748
25.351784
31.095306
37.539307
44.962944
53.164932
61.528389
69.357262
76.166039
81.941757
87.139374
92.587822
99.273026
108.087341
119.463058
133.016724
147.271011
159.666397
167.028687
166.207184
155.077545
133.179184
101.994675
64.664978
25.209427
-12.415092
-45.156151
-71.378250
-90.805260
-104.199394
-112.846054
-118.044800
-120.876526
-122.101501
-122.132431
-121.112808
-118.936325
-115.379089
-110.218307
-103.424591
-95.336426
-86.635727
-78.239227
-71.104996
-66.017624
-63.363495
-63.054443
-64.431259
-66.447845
-67.997711
-68.208481
-66.873337
-64.342758
-61.328552
-58.424744
-55.789398
-53.083862
-49.805405
-45.573715
-40.413254
-34.714386
-29.018097
-23.780334
-19.214630
-15.286758
-11.845963
-8.655197
-5.479088
-2.116196
1.494278
5.223717
8.764046
11.761780
14.030083
15.738403
17.387764
19.651443
23.018921
27.608223
33.081406
38.814003
44.283806
49.300766
54.051819
58.965042
64.381882
70.316620
76.479141
82.459145
87.919403
92.811493
97.348083
101.912048
106.987671
113.152283
121.038101
131.149139
143.436035
156.867737
169.230911
177.294342
177.580048
167.419342
145.785095
113.827454
74.597389
32.378685
-8.421700
-44.236794
-73.001083
-94.198944
-108.493187
-117.149223
-121.498161
-122.630585
-121.411774
-118.528694
-114.621620
-110.214355
-105.625931
-100.850273
-95.602577
-89.526466
-82.455933
-74.737907
-67.273544
-61.232773
-57.617279
-56.720329
-57.990311
-60.220039
-62.035797
-62.550743
-61.593994
-59.556427
-56.981384
-54.154884
-51.064552
-47.521423
-43.534378
-39.308151
-35.192467
-31.413391
-27.863380
-24.221375
-20.132996
-15.480392
-10.466187
-5.493668
-0.923767
3.147102
6.913162
10.772957
15.095947
20.009880
25.304466
30.479683
34.916451
38.246895
40.610970
42.754997
45.789207
50.724281
57.938522
66.960678
76.581284
85.370148
92.299271
97.191467
100.782036
104.412552
109.521904
117.223694
127.882294
140.895737
154.631607
166.431915
172.942703
170.818832
157.731659
133.207977
98.953636
58.525665
16.332031
-23.458084
-57.807922
-85.047844
-104.786911
-117.495155
-124.207916
-126.258751
-125.046043
-121.890732
-117.774742
-113.208969
-108.296059
-102.854996
-96.736404
-89.948929
-82.813293
-75.915634
-69.969444
-65.538490
-62.877151
-61.798546
-61.681992
-61.744591
-61.297173
-59.986259
-57.880051
-55.335464
-52.799889
-50.442657
-48.184723
-45.709564
-42.699265
-38.992973
-34.705338
-30.097054
-25.435555
-20.837830
-16.354057
-12.028793
-7.865433
-3.889717
-0.040512
3.949486
8.413345
13.676285
19.726814
26.182167
32.442303
37.954178
42.562004
46.653980
50.898346
55.881348
61.772949
68.266106
74.843163
81.101761
86.991455
92.921143
99.558640
107.653076
117.658981
129.472778
142.114700
153.621887
161.201157
161.709793
152.535706
132.536484
102.607780
65.575943
25.597511
-13.004436
-46.757011
-73.623215
-93.155914
-105.995209
-113.388611
-116.665359
-116.886322
-114.835953
-111.116325
-106.259583
-100.738373
-94.875175
-88.767181
-82.329948
-75.459328
-68.229218
-61.106033
-54.832275
-50.162743
-47.482784
-46.657104
-47.049633
-47.725067
-47.901917
-47.088058
-45.189312
-42.422157
-39.086430
-35.383514
-31.317871
-26.713732
-21.336988
-15.060486
-7.924896
-0.260117
7.438902
14.674003
21.086159
26.616158
31.512913
36.235321
41.303432
47.128544
53.873909
61.346027
69.061302
76.360306
82.769066
88.244507
93.444641
99.431503
107.289749
117.439514
129.101486
140.244476
147.926239
149.079300
141.357422
123.811066
97.174675
63.703640
26.755070
-10.025884
-43.346840
-70.889885
-91.468803
-105.034378
-112.295029
-114.351357
-112.482773
-107.886314
-101.658585
-94.662819
-87.377014
-79.982277
-72.405518
-64.578041
-56.583099
-48.732220
-41.456165
-35.225296
-30.326275
-26.873306
-24.742409
-23.681215
-23.280872
-23.052183
-22.519650
-21.282263
-19.089687
-15.814481
-11.425138
-5.954996
0.453418
7.459917
14.559289
21.138107
26.781311
31.380760
35.239929
38.983315
43.215111
48.401733
54.644810
61.680290
68.971558
75.972168
82.364449
88.290718
94.450523
101.923668
111.765289
124.377579
139.000275
153.334366
163.879532
166.616730
158.226669
137.202118
104.601097
63.903549
20.140802
-21.523375
-57.108959
-84.501732
-103.545761
-115.343521
-121.530426
-123.747047
-123.366928
-121.502182
-119.015518
-116.423912
-113.787491
-110.804024
-106.911041
-101.732910
-95.251114
-87.935936
-80.564323
-74.028442
-69.029968
-65.964737
-64.750824
-64.893341
-65.500458
-65.613510
-64.415718
-61.567070
-57.292393
-52.271812
-47.270458
-42.880203
-39.252899
-36.169071
-33.216118
-30.022861
-26.458805
-22.612207
-18.701870
-15.007469
-11.673622
-8.625853
-5.673294
-2.567040
0.816834
4.359711
7.859950
11.081568
14.007141
16.844299
19.947752
23.595039
27.806444
32.342667
36.847778
40.991302
44.690048
48.058426
51.336132
54.758060
58.488194
62.591461
67.134460
72.106232
77.415665
82.855377
88.248314
93.456055
98.621117
104.233170
111.081360
119.890915
130.919189
143.513123
155.862350
165.164307
168.203033
162.170898
145.515869
118.487778
83.216301
43.232948
2.652359
-34.693748
-66.000641
-89.871880
-106.241493
-116.091339
-120.875748
-122.069183
-120.819260
-117.878738
-113.647095
-108.394836
-102.329872
-95.662880
-88.626450
-81.438217
-74.277039
-67.350578
-60.934574
-55.413353
-51.179447
-48.547997
-47.540527
-47.854309
-48.827873
-49.747040
-49.979080
-49.283470
-47.753265
-45.756939
-43.605141
-41.363831
-38.835358
-35.730846
-31.913628
-27.536400
-22.964729
-18.635550
-14.750362
-11.274727
-7.989937
-4.710453
-1.390331
1.948631
5.294094
8.731056
12.429169
16.535866
21.031712
25.696609
30.260189
34.523811
38.464783
42.277588
46.280228
50.784157
56.005386
61.922928
68.297585
74.630135
80.371605
85.134956
88.990135
92.454597
96.472504
101.997597
109.654488
119.422104
130.463745
141.096161
149.014389
151.536819
146.199829
131.376266
106.912300
74.397003
37.002739
-1.265533
-36.596878
-66.212616
-88.838943
-104.558189
-114.310677
-119.333130
-120.780487
-119.624237
-116.595093
-112.291656
-107.113678
-101.271347
-94.746689
-87.421249
-79.307251
-70.769775
-62.525253
-55.472897
-50.313030
-47.315987
-46.208405
-46.295246
-46.801659
-47.069489
-46.609425
-45.157021
-42.608246
-39.078129
-34.925537
-30.697784
-26.986370
-24.157551
-22.175270
-20.572289
-18.736603
-16.249821
-13.073715
-9.536785
-6.070095
-3.010075
-0.338707
2.178261
4.908791
8.132767
11.913254
16.081490
20.341377
24.402046
28.099457
31.472382
34.734695
38.152267
41.881462
45.945412
50.237183
54.602814
58.955116
63.203667
67.302452
71.210457
74.987968
78.936539
83.733139
90.280891
99.274483
110.670448
123.194496
134.366119
140.987671
140.000778
129.429504
108.900826
79.802399
44.867439
7.685463
-28.096214
-59.285950
-83.667595
-100.330971
-109.693306
-113.160034
-112.710228
-110.182816
-106.767586
-102.779449
-97.954811
-91.898338
-84.526711
-76.218567
-67.679642
-59.656990
-52.662079
-46.970337
-42.774139
-40.202858
-39.311432
-39.754189
-40.759598
-41.247330
-40.268005
-37.514427
-33.405182
-28.894966
-24.941330
-21.959923
-19.896370
-18.323540
-16.843628
-15.207481
-13.154991
-10.333176
-6.300652
-0.731285
6.200104
13.805740
20.955711
26.799835
31.069824
34.250267
37.280975
41.047287
45.910629
51.571579
57.265289
62.197456
65.844627
68.303024
70.211380
72.632004
76.701706
83.365646
92.935188
104.780190
117.208740
127.605255
132.864075
130.226501
118.067482
96.517838
67.469482
34.132515
0.160042
-31.173767
-57.566483
-77.782448
-91.552269
-99.209877
-101.554832
-99.694992
-94.863159
-88.296310
-80.998055
-73.550514
-66.153328
-58.755203
-51.316612
-43.948715
-36.984024
-30.823982
-25.796356
-22.013481
-19.386673
-17.650574
-16.482323
-15.560020
-14.626938
-13.488152
-12.095901
-10.466637
-8.651993
-6.650742
-4.482391
-2.112778
0.451187
3.219856
6.194519
9.464256
13.121300
17.297470
22.073303
27.476341
33.547684
40.312057
47.721321
55.587845
63.495941
70.885056
77.355446
82.975632
88.423447
94.850716
103.347588
114.291931
126.798111
138.660355
146.704987
147.632736
138.985443
119.940033
91.608124
56.810413
19.333820
-17.021381
-49.236000
-75.471466
-95.036415
-108.163193
-115.640945
-118.573822
-118.237686
-115.918022
-112.759102
-109.432022
-106.116615
-102.459671
-97.932014
-92.095131
-84.959244
-77.089355
-69.454079
-63.111130
-58.822308
-56.795357
-56.614388
-57.388054
-58.166954
-58.211582
-57.217400
-55.205368
-52.351807
-48.779099
-44.536034
-39.710670
-34.531616
-29.323050
-24.460068
-20.129963
-16.271816
-12.710625
-9.313484
-6.055563
-2.912486
0.284905
3.877111
8.279641
13.653897
19.740364
25.844288
31.230843
35.469242
38.757351
41.798283
45.445946
50.275383
56.310043
63.025394
69.729752
75.899666
81.372963
86.329514
91.142715
96.267891
102.239708
109.625931
118.893921
130.019806
142.056992
152.834274
159.207153
157.795364
146.135178
123.587608
91.764809
54.061798
14.730625
-22.270275
-54.079506
-79.240143
-97.527618
-109.534882
-116.300957
-119.035263
-118.899246
-116.902809
-113.791077
-109.947426
-105.434464
-100.132866
-93.972984
-87.011353
-79.505531
-71.940720
-64.939835
-59.214928
-55.381466
-53.799934
-54.361881
-56.498619
-59.243198
-61.593555
-62.816227
-62.579807
-60.943542
-58.219028
-54.744381
-50.767487
-46.400467
-41.719280
-36.683163
-31.414345
-26.071281
-20.969078
-16.426289
-12.642700
-9.494690
-6.584251
-3.429445
0.265240
4.295496
8.171366
11.357079
13.701730
15.648057
17.954224
21.342541
26.026951
31.665928
37.509186
42.825401
47.202942
50.699902
53.698299
56.667458
59.968197
63.720367
67.833450
72.062149
76.160477
79.971931
83.510971
87.119629
91.378342
97.074348
104.875626
114.990997
126.685181
138.145599
146.576309
148.862610
142.459961
126.251251
101.069550
69.500755
35.129662
1.527617
-28.688269
-54.082592
-74.396736
-89.930176
-101.121964
-108.281815
-111.701958
-111.789612
-109.295601
-105.284042
-100.729118
-96.298355
-92.084221
-87.664436
-82.605133
-76.805000
-70.654633
-64.885536
-60.064957
-56.339325
-53.439198
-50.899254
-48.490562
-46.373520
-44.980953
-44.587250
-45.082001
-45.835258
-46.015224
-44.926277
-42.280785
-38.243404
-33.350845
-28.186600
-23.212990
-18.649422
-14.509268
-10.623899
-6.870675
-3.205343
0.281372
3.375574
5.958818
8.037659
9.752092
11.389570
13.178104
15.239723
17.586884
20.190048
23.006706
26.004326
29.103439
32.165039
35.089439
37.792076
40.260399
42.611568
45.063660
47.854668
51.214844
55.269897
59.890472
64.756493
69.472420
73.777420
77.854996
82.373543
88.270103
96.292946
106.492149
117.710175
127.768234
133.800964
133.059021
123.698738
105.314903
79.102623
47.589916
14.073544
-18.203331
-46.620693
-69.520744
-86.239471
-96.916473
-102.251755
-103.349525
-101.529694
-98.186699
-94.530762
-91.157990
-87.967834
-84.333771
-79.517090
-73.224396
-65.899384
-58.557465
-52.318115
-47.909046
-45.444054
-44.518616
-44.503197
-44.786194
-44.950230
-44.783352
-44.157913
-43.093216
-41.679020
-40.029755
-38.214294
-36.239323
-33.979206
-31.306873
-28.138420
-24.439232
-20.221054
-15.640358
-10.935509
-6.474609
-2.662834
0.248497
2.306488
3.826500
5.364075
7.361084
10.050003
13.365990
17.100639
20.987762
24.803551
28.477287
31.945465
35.196823
38.282578
41.219078
44.118698
46.990349
49.965492
53.300789
57.332771
62.358063
68.537064
75.768829
83.824142
92.368210
101.024124
109.151154
115.650925
118.826248
116.715103
107.736649
91.355469
68.492584
41.458038
13.227249
-13.298737
-36.039444
-53.945511
-66.886322
-75.240952
-79.589478
-80.622116
-78.977249
-75.382065
-70.564926
-65.114365
-59.380981
-53.385994
-47.044365
-40.333839
-33.565758
-27.295319
-22.228172
-18.802673
-16.975945
-16.233727
-15.893105
-15.461700
-14.766670
-13.891357
-12.949226
-11.905014
-10.557655
-8.697960
-6.312454
-3.584854
-0.769020
2.083183
5.123390
8.647232
12.868317
17.748840
23.056160
28.509445
33.943291
39.371307
44.808060
50.228287
55.519539
60.638664
65.659607
70.782730
76.258240
82.316597
89.100266
96.740028
105.231644
114.258881
122.861076
129.278839
131.210480
126.349541
113.177231
91.606102
63.161446
30.635117
-2.646561
-33.557739
-59.839108
-80.282364
-94.711212
-103.665573
-108.031906
-108.795105
-106.929565
-103.334404
-98.881912
-94.223038
-89.695107
-85.170151
-80.247559
-74.521072
-67.923729
-60.932686
-54.370079
-49.141762
-45.820621
-44.445366
-44.588539
-45.484493
-46.367393
-46.605968
-45.787582
-43.693085
-40.290825
-35.784836
-30.549124
-25.104176
-20.005726
-15.692174
-12.295485
-9.612915
-7.070899
-3.988190
0.194410
5.544470
11.590157
17.531137
22.632877
26.625715
29.819754
32.965816
36.888298
42.003582
48.159393
54.759842
60.964073
66.141029
70.206779
73.848885
78.309570
85.093979
95.251312
108.787834
124.394493
139.552856
151.201553
156.536880
153.556198
141.394104
120.383797
91.877907
58.158443
22.212944
-12.648563
-43.383629
-67.912521
-85.525909
-96.907806
-103.563248
-107.160934
-108.948448
-109.558907
-109.186676
-107.758530
-105.200012
-101.498047
-96.610497
-90.584030
-83.603233
-76.135811
-68.887375
-62.761841
-58.501320
-56.410858
-56.221573
-57.122658
-58.050011
-58.153374
-57.019585
-54.727089
-51.731796
-48.575478
-45.605232
-42.927155
-40.415894
-37.877464
-35.102524
-31.961929
-28.447296
-24.700333
-20.983673
-17.540489
-14.501694
-11.710762
-8.820591
-5.548717
-1.841255
2.001579
5.548824
8.531830
11.101936
13.789345
17.222652
21.784576
27.420712
33.726971
40.147003
46.247627
51.897701
57.274132
62.748413
68.849899
76.152100
85.026352
95.494759
106.905197
118.005760
127.110153
132.676682
133.710709
130.267227
123.429123
115.092209
107.604141
103.065987
102.811035
106.841843
113.698669
120.586929
123.996315
120.561134
107.977379
85.721100
55.264755
19.705193
-17.002266
-51.053345
-79.673630
-101.475945
-116.456154
-125.546715
-130.127380
-131.483734
-130.706955
-128.506989
-125.332947
-121.382874
-116.576370
-110.590240
-103.026611
-93.710815
-83.028778
-71.982529
-62.012802
-54.519485
-50.455566
-49.885239
-52.054504
-55.644714
-59.195755
-61.524704
-62.067383
-60.949844
-58.695648
-56.039963
-53.498093
-51.170044
-48.798279
-45.945221
-42.258911
-37.572784
-31.904282
-25.377747
-18.244553
-10.852783
-3.761642
2.423676
7.277863
10.745209
13.258987
15.533875
18.269775
21.910019
26.570053
32.151611
38.471161
45.424095
52.852707
60.496986
67.957069
74.835106
80.792580
85.898842
90.587341
95.516792
101.579834
109.488525
119.454979
130.884766
142.140900
150.653168
153.439957
147.876022
132.504547
107.641647
75.342896
38.974487
2.350845
-31.120789
-59.098465
-80.561508
-95.615799
-105.098480
-110.023300
-111.325562
-109.779541
-106.002701
-100.629730
-94.258804
-87.358994
-80.151627
-72.634811
-64.758163
-56.687958
-49.001190
-42.602661
-38.410431
-37.017334
-38.341415
-41.665009
-45.837143
-49.578537
-51.902969
-52.281128
-50.567459
-46.946289
-41.766357
-35.418686
-28.258026
-20.691162
-13.103790
-5.905457
0.594208
6.422272
11.909103
17.684189
24.332291
32.086487
40.718842
49.548630
57.734406
64.566345
69.836609
73.897980
77.658905
82.469559
89.688263
100.213364
113.896423
129.232407
143.311722
152.452103
153.154480
143.162918
122.149414
91.839203
55.636734
17.841812
-17.429596
-47.050735
-69.461319
-84.762314
-94.273285
-99.813538
-102.996124
-104.785843
-105.456482
-104.856659
-102.726593
-98.893753
-93.403870
-86.447342
-78.418777
-69.878784
-61.639023
-54.595963
-49.543823
-46.946991
-46.772385
-48.439240
-51.015884
-53.273407
-54.131180
-52.882797
-49.452087
-44.402771
-38.720444
-33.325027
-28.681641
-24.629593
-20.555527
-15.780289
-9.945312
-3.159271
4.093246
11.206421
17.767593
23.688690
29.209061
34.743118
40.691040
47.266800
54.433533
61.952255
69.434631
76.643021
83.501251
90.188858
97.076218
104.667755
113.461868
123.847885
135.862640
148.826370
161.017227
169.677521
171.518753
163.724915
144.936157
115.940125
79.545685
39.778259
0.738571
-34.375916
-63.718185
-86.678894
-103.486786
-114.795044
-121.491486
-124.547623
-124.944687
-123.533386
-120.892395
-117.210541
-112.412262
-106.327148
-98.919250
-90.486389
-81.673447
-73.362411
-66.459824
-61.638672
-59.110870
-58.631805
-59.561920
-61.051880
-62.335449
-62.875061
-62.371078
-60.783630
-58.265900
-55.052994
-51.380524
-47.411118
-43.056503
-38.102051
-32.265839
-25.436081
-17.824417
-9.973938
-2.494156
4.141144
9.959702
15.436005
21.220123
27.888016
35.571732
43.866257
52.065750
59.490372
65.917648
71.851990
78.505028
87.447327
100.214394
117.595711
139.195312
163.167114
186.225922
204.017822
212.014359
206.602219
186.144104
151.621384
106.459755
55.548309
3.900322
-44.704178
-88.358719
-126.852959
-160.967163
-191.504456
-218.608246
-241.624023
-259.322021
-270.337006
-273.634521
-268.844330
-256.407074
-237.657990
-214.576126
-189.470093
-164.537384
-141.392548
-120.808426
-102.746498
-86.526901
-71.049835
-55.099976
-37.575600
-17.661264
4.982785
30.116123
57.040817
84.665771
111.799942
137.381897
160.744659
181.601624
199.993835
216.086197
229.940704
241.360779
249.877075
254.945831
256.247589
253.906403
248.490570
240.829590
231.686523
221.560211
210.676651
199.262756
187.769806
176.908157
167.498505
160.307007
156.014343
155.200729
158.281937
165.248260
175.174576
185.883026
194.034409
195.842239
188.104507
169.164673
139.286530
100.425583
55.670876
8.461769
-37.956398
-80.840866
-118.209320
-148.862198
-172.466461
-189.412170
-200.570374
-206.943466
-209.466843
-208.788742
-205.290329
-199.293076
-191.239090
-181.858124
-172.093658
-162.939545
-155.109802
-148.839172
-143.964447
-140.090515
-136.952454
-134.559235
-133.159302
-132.932190
-133.747437
-134.994171
-135.763641
-135.202942
-132.836273
-128.865082
-124.131622
-119.867889
-117.296570
-117.054352
-118.896881
-121.677826
-123.886292
-124.402527
-123.145905
-121.167358
-120.234558
-121.974030
-127.100220
-135.063416
-144.510437
-153.701157
-161.171066
-166.137512
-168.576675
-169.330307
-170.483765
-175.548889
-189.024063
-214.800293
-253.982086
-303.145386
-354.369141
-397.452484
-423.543549
-428.408997
-413.722656
-385.612885
-351.595520
-317.448700
-285.789856
-256.649658
-229.221252
-203.356842
-179.887299
-159.850403
-143.359894
-129.153534
-115.116943
-99.398499
-81.352234
-61.714172
-42.324097
-25.001221
-10.746643
0.687012
10.589600
20.615662
32.046631
45.239929
59.602661
73.982910
87.308105
99.066406
109.493896
119.389282
129.628662
140.788696
152.917725
165.634033
178.401855
190.928833
203.297241
215.952515
229.442261
244.152466
260.164307
277.302612
295.306030
313.967407
333.315918
353.531616
374.946167
398.005493
423.189941
450.912964
481.055786
512.669067
543.852783
572.135132
594.989380
610.440552
617.137817
614.063110
600.147827
574.206665
535.364502
483.724121
420.958618
350.294434
276.128662
203.085938
135.273071
75.739014
26.282349
-12.484863
-41.021851
-60.515991
-72.546143
-78.615723
-79.966919
-77.629028
-72.638062
-66.275513
-60.029907
-55.271606
-52.870850
-52.900391
-54.691895
-57.351807
-60.182983
-62.987427
-65.982056
-69.352051
-72.762329
-75.251343
-75.542847
-72.651489
-66.423096
-57.604980
-47.460815
-37.242188
-27.631348
-18.584106
-9.547729
0.199341
11.151123
23.441528
36.785767
50.552734
64.026123
76.687866
88.532959
100.232056
112.936157
127.935791
146.150269
167.784668
192.072632
217.158691
240.167725
257.470581
265.441162
261.333496
244.222656
215.372803
177.710083
134.760498
89.376831
43.099121
-3.627441
-50.479370
-96.305725
-138.842773
-175.280151
-203.338440
-222.199768
-232.717590
-236.847229
-236.637085
-233.436096
-227.732971
-219.617432
-209.489258
-198.551941
-188.639282
-181.560303
-178.332031
-178.689758
-181.257141
-184.143616
-185.668701
-184.916382
-181.914917
-177.304810
-171.899353
-166.333801
-160.875061
-155.452087
-149.878235
-143.987366
-137.715881
-131.151917
-124.445984
-117.714722
-111.033630
-104.389771
-97.759949
-91.131592
-84.539551
-78.066345
-71.739197
-65.505859
-59.232544
-52.755188
-45.929260
-38.710938
-31.193359
-23.630310
-16.363586
-9.681396
-3.680054
1.894348
7.579956
14.078552
21.881287
30.955383
40.712219
50.212646
58.605957
65.643005
71.893616
78.387451
86.217651
95.922729
107.327881
119.739380
132.325989
144.513794
156.122620
167.367310
178.656128
190.466980
203.425903
218.248169
235.432922
254.634888
274.065552
290.333008
299.123993
296.397400
279.848907
249.660065
208.200745
158.983490
105.339813
49.856842
-5.402527
-58.263000
-105.955780
-145.447083
-174.454224
-192.570587
-201.466522
-204.255798
-204.017395
-202.577881
-200.082428
-195.594727
-188.233215
-178.111359
-166.518402
-155.391907
-146.431305
-140.496643
-137.440948
-136.455154
-136.591751
-137.129135
-137.692001
-138.117996
-138.216980
-137.702469
-136.188721
-133.314514
-128.912323
-123.023270
-115.935059
-108.104416
-100.048187
-92.271317
-85.135468
-78.827957
-73.253891
-68.112549
-62.978073
-57.457123
-51.354385
-44.739258
-37.906601
-31.209457
-24.878601
-18.907364
-12.994125
-6.753448
0.196014
8.024048
16.674896
25.910553
35.361404
44.663223
53.508575
61.782745
69.620941
77.467468
85.950089
95.587433
106.503998
118.271210
130.015915
140.882156
150.438965
158.973557
167.495148
177.421677
190.001724
205.805191
224.083984
242.527557
257.443359
264.458984
259.587219
240.314148
206.390091
159.835953
104.502136
45.308212
-12.797531
-65.484177
-109.524963
-143.242172
-166.647888
-181.119980
-188.808685
-191.723114
-191.175110
-187.731369
-181.631729
-173.258743
-163.402802
-152.964722
-142.656326
-132.837860
-123.610489
-115.195114
-108.145996
-103.194702
-100.906296
-101.238785
-103.457611
-106.325653
-108.570221
-109.256561
-107.946915
-104.757278
-100.111160
-94.550262
-88.521255
-82.079590
-75.002792
-67.055389
-58.259354
-49.135422
-40.583221
-33.432556
-28.046890
-24.101028
-20.719086
-16.834915
-11.720856
-5.070709
2.874207
11.610306
20.588196
29.333511
37.618729
45.466553
53.165115
61.099655
69.653885
78.969467
88.841232
98.869690
108.500977
117.320465
125.169830
132.404205
139.814240
148.554504
159.752167
173.897125
190.278381
206.623932
219.318665
224.160858
217.478119
197.216980
163.634491
119.367584
68.830505
17.269775
-30.382446
-70.385345
-100.722534
-121.137146
-132.715027
-137.207184
-136.506500
-132.255341
-125.658051
-117.605591
-108.714691
-99.375732
-89.805756
-80.096069
-70.365326
-60.915894
-52.322968
-45.314697
-40.520142
-38.191528
-38.054077
-39.362732
-41.161591
-42.520874
-42.722351
-41.368347
-38.297974
-33.590393
-27.483002
-20.326141
-12.470596
-4.257217
4.024445
12.213699
20.297958
28.407547
36.810028
45.849655
55.781219
66.511673
77.658417
88.680557
99.257370
109.593033
120.451218
133.014847
148.252380
166.418564
186.568985
206.388275
222.474457
230.858429
227.940689
211.382401
180.867737
138.298767
87.539169
33.446823
-19.055313
-65.960663
-104.646576
-134.029419
-154.307648
-166.547318
-172.290344
-173.091461
-170.335114
-165.051361
-158.020569
-149.842224
-141.006439
-131.904694
-122.790192
-113.861710
-105.350845
-97.666214
-91.437759
-87.245468
-85.414902
-85.726730
-87.415268
-89.411255
-90.668350
-90.516296
-88.695068
-85.304932
-80.574493
-74.746246
-67.993454
-60.486450
-52.447601
-44.166260
-35.910583
-27.852249
-19.903290
-11.904770
-3.676056
4.764816
13.222061
21.366165
29.038879
36.462738
44.121216
52.585602
62.201080
72.908508
84.205536
95.405838
105.923126
115.417542
123.895508
131.775330
139.810089
149.125534
160.928345
175.970032
193.899048
212.695877
228.716156
237.442856
234.686661
217.777817
186.485840
143.149445
92.064941
38.418640
-12.741226
-57.523331
-93.629807
-120.397583
-138.402115
-149.094482
-154.255234
-155.652939
-154.796631
-152.753342
-150.069351
-146.719040
-142.214386
-136.035385
-127.956909
-118.317108
-108.109680
-98.597656
-90.945435
-85.786484
-83.120712
-82.403091
-82.748764
-83.162445
-82.863129
-81.407990
-78.758408
-75.289200
-71.574585
-68.116745
-65.194687
-62.809448
-60.696625
-58.493515
-55.835236
-52.424728
-48.010284
-42.527054
-36.080261
-29.061172
-22.045517
-15.662399
-10.284515
-5.963852
-2.358505
1.086563
4.925873
9.582840
15.256699
21.919052
29.332169
37.092361
44.696320
51.628693
57.630127
62.841003
67.788300
73.249908
79.842987
87.786041
96.717102
105.883575
114.535645
122.333893
129.529510
137.002960
145.987976
157.562622
172.162231
189.101990
206.372528
220.731110
228.306091
225.484161
209.959625
181.555145
142.276917
95.963928
47.236572
0.453003
-41.077484
-75.407227
-101.868744
-120.730682
-132.895966
-139.633240
-142.360596
-142.415131
-140.805145
-138.029327
-134.099701
-128.776459
-121.845947
-113.451935
-104.210358
-95.027618
-86.917084
-80.626862
-76.471832
-74.268616
-73.399750
-73.076599
-72.542480
-71.360809
-69.412140
-66.897980
-64.111542
-61.153870
-57.960846
-54.383240
-50.302582
-45.825012
-41.278809
-36.962677
-33.021881
-29.360199
-25.756470
-21.968292
-17.838837
-13.344635
-8.467438
-3.230408
2.350677
8.183380
14.121552
19.991821
25.700226
31.214020
36.577606
41.912903
47.406219
53.320557
59.896698
67.296387
75.417328
83.889008
92.270935
100.293793
108.166595
116.594360
126.523254
138.649567
152.850220
167.981049
181.786743
191.282928
193.362640
185.564880
166.777222
137.689819
100.799377
59.828705
18.835876
-18.720825
-50.570282
-75.703217
-94.102356
-106.305328
-113.153229
-115.688385
-115.063202
-112.475403
-108.860657
-104.722931
-100.129822
-94.853729
-88.675018
-81.601746
-73.921326
-66.264954
-59.434784
-54.228302
-51.264801
-50.639282
-51.790375
-53.633148
-54.863770
-54.430359
-51.898407
-47.456573
-41.727295
-35.381989
-28.970947
-22.761414
-16.860565
-11.247833
-5.842438
-0.496460
4.929169
10.509857
16.190948
21.857269
27.512482
33.297394
39.535400
46.538422
54.379791
62.780090
71.136719
78.786285
85.376160
91.111664
96.853302
104.069122
114.104370
127.558655
143.550964
159.608032
171.988953
176.766907
170.994141
153.508850
125.308685
89.142365
48.750519
8.095978
-29.410767
-61.321838
-86.332642
-104.190155
-115.545197
-121.534027
-123.463715
-122.544525
-119.680420
-115.366974
-109.811615
-102.981018
-94.793427
-85.347443
-75.139252
-65.077789
-56.238373
-49.571472
-45.570190
-44.056854
-44.300934
-45.252136
-45.976959
-45.736938
-44.206482
-41.422211
-37.615173
-33.039215
-27.877716
-22.161041
-15.916229
-9.259186
-2.446899
4.162933
10.346558
16.175934
22.011444
28.342010
35.570160
43.803558
52.793365
62.173004
71.552399
80.621277
89.192474
97.170654
104.640289
112.020874
120.149628
130.076721
142.618317
157.680267
173.751160
187.909912
196.301788
195.255249
182.307373
157.082611
121.337830
78.563873
33.051941
-11.083771
-50.597412
-83.447968
-108.716354
-126.439713
-137.351929
-142.728180
-144.137009
-143.156357
-141.095825
-138.602356
-135.723068
-131.992569
-126.818268
-119.830536
-111.213791
-101.673920
-92.388184
-84.650253
-79.417221
-77.064880
-77.118774
-78.476990
-79.745865
-79.731293
-77.896545
-74.368805
-69.870346
-65.204117
-60.850540
-56.916031
-53.192184
-49.404358
-45.376785
-40.978226
-36.080780
-30.487411
-24.120605
-17.145630
-10.057159
-3.499344
2.072357
6.645386
10.677475
14.822754
19.560425
25.050644
31.116058
37.601288
44.546646
52.260834
61.101746
71.121796
81.885239
92.510056
102.047470
109.875473
116.001221
121.323715
127.286697
135.502640
147.166077
162.488434
180.190765
197.569397
210.847931
216.081650
210.150894
191.686417
161.544540
122.539398
78.654007
34.043121
-7.823364
-44.611084
-75.137161
-99.060425
-116.604645
-128.316376
-135.058548
-137.863129
-137.874451
-136.002991
-132.816376
-128.466431
-122.861633
-116.007446
-108.187012
-100.066055
-92.541397
-86.422394
-82.193008
-79.892670
-79.196945
-79.507263
-80.216812
-80.745773
-80.664047
-79.593918
-77.317749
-73.860718
-69.530869
-64.837692
-60.258835
-56.111557
-52.337021
-48.606766
-44.595581
-40.212265
-35.587585
-30.955658
-26.462738
-22.023834
-17.426102
-12.514954
-7.384247
-2.309967
2.474487
6.943024
11.346878
16.014832
21.050964
26.270004
31.293472
35.894272
40.200577
44.685669
49.912491
56.251282
63.591293
71.508743
79.411423
86.887573
93.846222
100.503677
107.324677
114.829315
123.531540
133.920746
146.246094
160.339096
175.219772
188.934708
198.591949
200.824707
192.729660
172.857712
141.890259
102.568359
59.067688
15.739105
-23.890610
-57.714294
-84.969971
-105.718903
-120.406372
-129.598145
-134.052109
-134.809311
-133.173569
-130.302460
-126.923889
-123.092392
-118.352615
-112.254959
-104.773270
-96.540878
-88.613251
-82.126694
-77.747986
-75.488556
-74.748062
-74.638245
-74.318054
-73.257507
-71.311447
-68.638779
-65.604065
-62.480759
-59.366638
-56.130096
-52.485916
-48.165237
-43.117355
-37.579056
-32.021500
-26.948654
-22.640976
-19.051468
-15.797211
-12.305176
-8.113190
-3.004364
2.886383
9.243134
15.690918
22.060059
28.458908
35.187607
42.563477
50.665283
59.302887
68.039032
76.429108
84.214996
91.372894
98.114014
104.767334
111.784363
119.704102
129.102966
140.376678
153.345428
166.822540
178.518097
185.252747
183.814728
171.950256
149.158661
117.011841
78.787109
38.544525
0.138031
-33.613800
-61.212036
-82.394226
-97.609253
-107.609100
-113.098877
-114.693329
-112.949097
-108.512573
-102.128616
-94.573364
-86.565277
-78.618271
-71.037323
-64.014572
-57.617325
-51.967804
-47.196732
-43.461731
-40.830353
-39.217697
-38.349991
-37.830231
-37.192017
-36.038208
-34.091049
-31.090179
-26.837601
-21.257324
-14.480835
-6.882278
0.965683
8.546951
15.665497
22.534058
29.673615
37.519577
46.217560
55.404602
64.442734
72.776337
80.215363
86.980362
93.601395
100.777054
109.334457
120.160599
133.904022
150.447906
168.249420
184.143936
193.914856
193.483597
180.377472
154.607391
118.693253
76.728622
33.082169
-8.622864
-45.987427
-77.663177
-103.018066
-121.841705
-134.311951
-141.045731
-143.148117
-142.012238
-138.925720
-134.777405
-129.813354
-123.773560
-116.310219
-107.349190
-97.435913
-87.724564
-79.582603
-74.083099
-71.510277
-71.234993
-71.941437
-72.174805
-70.927826
-67.911217
-63.536316
-58.588570
-53.732475
-49.249550
-44.874069
-40.041870
-34.180016
-27.046898
-18.852188
-10.197838
-1.763863
5.942116
12.824699
19.209312
25.682388
32.868126
41.167236
50.587280
60.750847
71.035637
80.840096
89.771927
97.819328
105.343109
113.080345
122.024178
133.281021
147.685562
165.360291
185.065643
203.931274
217.768387
222.047058
213.245651
190.095673
154.086945
108.962227
59.605061
10.733856
-34.023109
-72.338097
-103.040367
-125.784271
-140.904297
-149.356888
-152.614288
-152.459915
-150.523438
-147.943573
-145.114456
-141.765518
-137.349731
-131.319641
-123.547485
-114.543373
-105.312843
-97.108353
-90.953796
-87.272072
-85.779022
-85.580643
-85.652809
-85.165680
-83.751465
-81.370880
-78.207565
-74.447693
-70.299423
-65.989075
-61.807774
-57.950550
-54.457268
-51.167519
-47.776451
-44.059700
-39.933708
-35.433880
-30.597878
-25.404839
-19.785139
-13.738716
-7.353577
-0.808949
5.779074
12.459485
19.363144
26.521015
33.747746
40.629250
46.805511
52.223183
57.300701
62.877483
69.758240
78.350510
88.400284
99.031464
109.156281
117.895638
125.011154
130.999420
136.862244
143.734772
152.614838
164.118057
178.288879
194.491486
211.098267
225.300842
233.285004
231.079498
215.698792
186.387405
145.161102
96.321686
45.218033
-3.305653
-45.912918
-81.123550
-108.818581
-129.597092
-144.183517
-153.300690
-157.776718
-158.568146
-156.721817
-153.100540
-148.141235
-141.822708
-133.874451
-124.160713
-112.969513
-101.132347
-89.870071
-80.516251
-74.091476
-70.943390
-70.711060
-72.341843
-74.519562
-76.029144
-76.211807
-74.963531
-72.657806
-69.868820
-66.972397
-64.046379
-60.843502
-57.102299
-52.694870
-47.805405
-42.808548
-38.042976
-33.637177
-29.528530
-25.498116
-21.381968
-17.097086
-12.623632
-7.854565
-2.498884
3.770298
11.108119
19.329454
27.848883
35.918690
43.028336
49.235489
55.187119
61.807934
69.866554
79.614410
90.701111
102.344521
113.650848
123.906494
132.763168
140.409027
147.594711
155.564575
165.715866
179.030045
195.359238
212.878387
228.142303
236.726395
234.363235
218.256836
187.937943
145.538330
95.173767
41.956886
-9.211861
-54.511429
-91.700851
-120.038002
-139.921799
-152.454498
-159.066376
-161.337555
-160.728119
-158.431732
-155.134079
-150.915771
-145.431549
-138.234695
-129.227814
-118.845284
-108.057571
-98.033417
-89.764465
-83.908295
-80.542671
-79.320793
-79.540306
-80.377831
-81.067825
-81.086693
-80.106712
-77.957649
-74.463173
-69.387115
-62.662727
-54.581535
-45.926109
-37.777031
-31.093216
-26.265594
-23.002083
-20.501526
-17.899963
-14.611435
-10.306137
-4.905220
1.569870
8.934547
16.788582
24.591415
31.902153
38.618492
45.191727
52.403130
61.038734
71.328224
82.860405
94.693253
105.837212
115.685036
124.337738
132.665405
142.105911
154.174896
169.811523
188.624420
208.495026
225.578491
235.157166
232.866714
216.055527
184.674255
141.349091
90.640358
37.885391
-12.044525
-55.565224
-90.621750
-116.548317
-133.724030
-143.269318
-146.762543
-145.961761
-142.534973
-137.592194
-131.614578
-124.479057
-115.847717
-105.680237
-94.508392
-83.471756
-73.895462
-66.845749
-62.786865
-61.524399
-62.377991
-64.370514
-66.583618
-68.061478
-68.038055
-66.040283
-62.050293
-56.457199
-49.891968
-42.872162
-35.593491
-27.977036
-19.841446
-11.252594
-2.567413
5.757629
13.454315
20.647430
27.758255
35.316818
43.631531
52.768967
62.640182
73.079834
83.902191
94.833435
105.507614
115.617966
125.156906
134.715866
145.529327
159.085083
176.373413
197.157715
219.245834
238.678116
250.520584
250.334641
235.413589
205.619690
163.227051
112.097214
56.701645
1.264069
-50.496765
-95.410858
-131.128357
-156.418152
-171.648743
-178.673706
-180.315826
-179.228210
-177.019104
-174.022400
-169.678467
-163.339478
-154.881348
-144.871948
-134.287170
-124.182373
-115.376190
-108.424500
-103.631989
-100.969330
-100.148254
-100.516846
-101.246826
-101.508789
-100.762970
-98.766052
-95.564117
-91.317322
-86.263885
-80.576782
-74.468842
-68.124054
-61.736786
-55.521484
-49.658447
-44.181915
-39.005493
-33.675964
-27.594818
-20.184814
-11.190491
-0.919464
9.820404
20.071014
29.190826
37.102997
44.345520
51.690308
59.733246
68.685791
78.362885
88.509308
98.952728
109.755066
120.990509
132.698822
144.770325
157.143524
170.002075
183.993195
200.014374
218.798065
239.939606
261.379883
279.342285
289.104034
286.422577
268.942230
236.897339
192.820740
140.553833
84.112366
27.113129
-27.280121
-76.127380
-116.803680
-147.438538
-167.620880
-178.735291
-183.476135
-184.800018
-184.747681
-183.926117
-181.775208
-177.342773
-170.126038
-160.478363
-149.524841
-138.746521
-129.461243
-122.565216
-118.371185
-116.604675
-116.595306
-117.516144
-118.531067
-118.959839
-118.202362
-115.827515
-111.610535
-105.715332
-98.710999
-91.492706
-84.965546
-79.660217
-75.519318
-71.821259
-67.706787
-62.437592
-55.763824
-47.996033
-39.780792
-31.805969
-24.510284
-17.923340
-11.725372
-5.372986
1.693817
9.838898
19.072693
29.021545
39.170410
49.061279
58.479431
67.530212
76.586792
86.032745
96.202026
107.213959
118.948761
131.075775
143.093323
154.526764
165.173004
175.310638
185.807678
197.957001
212.990570
231.346130
251.899750
271.654083
286.135376
290.569336
281.321991
256.965088
218.577972
169.149048
112.683807
53.402802
-4.631348
-57.658630
-102.461517
-136.826111
-160.242706
-173.983673
-180.719757
-183.385254
-183.953430
-182.956390
-179.827087
-173.872131
-165.086792
-154.416931
-143.413940
-133.534637
-125.714386
-120.328156
-117.316071
-116.355774
-116.830536
-117.886902
-118.578308
-118.191925
-116.541901
-113.991974
-111.130463
-108.359528
-105.570160
-102.227142
-97.738464
-91.918457
-85.033295
-77.667389
-70.346313
-63.179779
-55.996185
-48.472076
-40.545197
-32.485626
-24.802521
-17.906525
-11.819336
-6.144897
-0.199463
6.609497
14.447052
22.982727
31.559784
39.549133
46.706726
53.306213
60.005646
67.510345
76.277466
86.286438
97.156158
108.383972
119.569519
130.561401
141.353760
152.023804
162.751709
173.919586
186.297302
200.881592
218.356018
238.301514
258.462341
274.807739
282.397552
276.929016
256.205658
220.655273
173.070801
117.579315
58.518433
-0.080078
-54.686523
-102.134979
-139.884491
-166.496277
-182.129181
-188.677063
-189.076477
-186.319824
-182.411865
-177.984161
-172.612305
-165.573364
-156.651062
-146.416962
-136.029816
-126.717743
-119.305420
-113.981171
-110.406982
-107.965942
-106.168671
-104.659698
-103.262421
-101.761993
-99.849945
-97.221771
-93.496460
-88.562531
-82.563049
-75.890289
-68.961060
-62.113892
-55.475250
-48.991791
-42.559753
-36.134216
-29.731354
-23.343781
-16.793304
-9.730591
-1.842224
6.922546
16.261841
25.596252
34.443176
42.678345
50.655487
59.015533
68.319626
78.738144
90.018723
101.663116
113.088531
123.917007
134.017014
143.574448
153.138123
163.606842
176.048279
191.273727
209.120300
227.813385
243.965744
253.145615
251.096313
234.926849
204.002655
160.074753
106.865814
49.266632
-7.569443
-59.016464
-101.610046
-133.474548
-154.388458
-165.577332
-169.157791
-167.476547
-162.497406
-155.477432
-147.051834
-137.461029
-126.945755
-115.850433
-104.677002
-94.022034
-84.416946
-76.322357
-70.109863
-66.061493
-64.265442
-64.556244
-66.328888
-68.561569
-69.992722
-69.518616
-66.499847
-60.998398
-53.494614
-44.695663
-35.201782
-25.355713
-15.357132
-5.441574
4.059799
12.747284
20.355896
26.956192
33.080643
39.487274
46.924988
55.821198
66.114517
77.378922
89.068375
100.807587
112.449020
124.058624
135.737411
147.639206
160.139725
173.984634
190.261078
209.656158
231.490555
252.890167
269.105164
274.633850
265.229279
239.348633
198.571289
146.814224
88.983170
29.835938
-26.512787
-76.676819
-118.026672
-148.992523
-169.513702
-181.180817
-186.663696
-188.663940
-188.993744
-188.222748
-185.973389
-181.679382
-175.070190
-166.389954
-156.259430
-145.490387
-134.995270
-125.775391
-118.763550
-114.530670
-113.065063
-113.619629
-114.962158
-115.902802
-115.452972
-113.171021
-109.047882
-103.341248
-96.451111
-88.828094
-80.913544
-73.043488
-65.415680
-58.073975
-50.940460
-43.898376
-36.754089
-29.358215
-21.620911
-13.565308
-5.341064
2.857086
10.981934
19.196899
27.798355
37.161362
47.484634
58.661636
70.382584
82.302124
94.168777
105.904816
117.541901
129.031921
140.261292
151.033371
161.236282
171.052841
181.151688
192.644104
206.914597
224.918793
246.231628
268.354614
286.819763
296.156464
291.696289
271.198486
235.489243
187.815674
132.486008
73.583939
14.516800
-41.704041
-92.068161
-133.574905
-163.990295
-182.783463
-191.491333
-193.213715
-191.375488
-188.392212
-185.084930
-180.927612
-174.861298
-166.275208
-155.450897
-143.581940
-132.200836
-122.801239
-116.279144
-112.787048
-111.886658
-112.741577
-114.437012
-116.130859
-117.025146
-116.451477
-114.005798
-109.625336
-103.757477
-97.191101
-90.774597
-85.092316
-80.283020
-75.962891
-71.501465
-66.287537
-59.891876
-52.207611
-43.468903
-34.163910
-24.871857
-16.178406
-8.486053
-1.900009
3.782074
9.033997
14.430725
20.418793
27.392914
35.425232
44.281067
53.443649
62.373322
70.680237
78.416199
86.074280
94.320251
103.677078
114.182434
125.510773
137.109268
148.541672
159.640625
170.563324
181.739990
193.863953
207.752930
223.910919
241.905060
259.794769
273.989929
279.901794
273.405945
252.063232
215.988785
167.680542
111.170517
51.071091
-8.193436
-62.651062
-109.070557
-145.149414
-169.987839
-184.325806
-190.220947
-190.357635
-187.060394
-181.796188
-175.042557
-166.774200
-157.061951
-146.322617
-135.322708
-124.919144
-115.880066
-108.745667
-103.818390
-101.137375
-100.550415
-101.595016
-103.534958
-105.424622
-106.317932
-105.470123
-102.618378
-97.983490
-92.264160
-86.249237
-80.535614
-75.311813
-70.341766
-65.234863
-59.718521
-53.838959
-47.856430
-41.997910
-36.306076
-30.589378
-24.599136
-18.237984
-11.522453
-4.539680
2.659294
10.155754
17.973854
26.016586
34.002869
41.549641
48.393528
54.641304
60.706615
67.178101
74.669586
83.526161
93.652855
104.598373
115.618637
126.067596
135.516205
144.061401
152.265427
161.071259
171.626511
184.996948
201.792480
221.529282
242.028397
259.266144
268.053406
263.270966
241.608078
202.815994
149.983673
88.734718
25.597874
-33.482098
-84.130905
-123.879494
-151.990250
-169.129990
-177.145966
-178.539627
-175.906784
-171.337479
-165.871078
-159.580872
-151.963303
-142.557495
-131.357208
-118.936485
-106.361038
-94.817001
-85.294960
-78.499313
-74.662918
-73.515182
-74.445358
-76.548111
-78.844437
-80.483795
-80.705566
-79.020691
-75.235176
-69.578827
-62.627178
-55.241028
-48.217781
-41.991322
-36.577148
-31.580992
-26.517759
-20.960224
-14.588409
-7.207888
1.279213
10.735720
20.732876
30.535982
39.428967
47.055264
53.605537
59.830467
66.626129
74.633217
84.052834
94.486877
105.196762
115.434341
124.738892
133.233047
141.703461
151.460587
163.761566
179.135712
196.576630
213.295227
225.189682
227.757751
217.347031
192.285919
153.333130
103.604279
47.899910
-8.321060
-59.972374
-103.182274
-135.700790
-157.043381
-168.105591
-170.764328
-167.379395
-160.284698
-151.372665
-141.926514
-132.558197
-123.313492
-113.989532
-104.490143
-95.001999
-85.997459
-78.060890
-71.661606
-67.124718
-64.587738
-64.020874
-65.162811
-67.402138
-69.869209
-71.502609
-71.415581
-69.079193
-64.437935
-57.837852
-49.864014
-41.269867
-32.852722
-25.342911
-19.234665
-14.526764
-10.753937
-7.162407
-2.998329
2.138634
8.236687
15.137848
22.667183
30.693169
39.068192
47.587265
55.980453
64.147903
72.323837
80.961060
90.554550
101.179077
112.466919
123.741730
134.412781
144.388184
154.178909
164.843369
177.512085
192.921555
210.802719
229.320190
245.138641
253.909042
251.319534
234.387589
202.425247
157.368286
103.256256
45.347824
-11.073273
-61.578842
-103.149651
-134.415009
-155.527328
-167.809052
-173.236420
-173.774719
-171.038391
-166.208649
-160.123627
-153.377838
-146.360260
-139.157104
-131.581207
-123.395950
-114.663162
-105.945755
-98.230682
-92.397636
-88.816841
-87.159592
-86.556458
-86.039162
-85.036842
-83.431343
-81.366882
-79.077316
-76.671837
-74.045448
-71.004028
-67.167267
-62.114510
-55.509605
-47.386703
-38.310585
-29.314384
-21.483673
-15.486984
-11.240433
-7.876389
-4.222839
0.669586
7.178101
15.030167
23.549652
32.046539
40.118332
47.725449
55.214325
63.045685
71.617661
81.072968
91.168350
101.380249
111.197296
120.318802
128.825714
137.302658
146.676971
157.960312
171.912079
188.628296
206.964645
224.417511
237.310654
241.445206
233.268814
210.898682
174.782837
127.655106
74.001724
18.965500
-32.625763
-77.047485
-112.200531
-137.517227
-153.677460
-162.138290
-164.514343
-162.321518
-156.927689
-149.617416
-141.558243
-133.705185
-126.519180
-119.794815
-112.948334
-105.452423
-97.352142
-89.385696
-82.694122
-78.163849
-76.053024
-75.814209
-76.424408
-76.860733
-76.427490
-74.876221
-72.372681
-69.218262
-65.701447
-62.026443
-58.091614
-53.603607
-48.219009
-41.774933
-34.503571
-27.134079
-20.553268
-15.447708
-11.955170
-9.493561
-7.051544
-3.588272
1.627029
8.750000
17.299316
26.328140
34.860153
42.188934
48.249664
53.676056
59.434799
66.358276
74.798340
84.422028
94.560974
104.544556
113.960754
122.851059
131.505325
140.449707
150.369263
162.060455
176.056305
192.125488
208.765579
222.783981
229.962784
225.985138
207.969421
175.555038
131.262070
79.815613
26.861053
-22.515564
-64.827972
-98.474640
-123.392685
-140.397873
-150.482742
-154.664871
-154.024170
-149.882248
-143.660782
-136.725174
-129.821472
-122.934250
-115.551437
-107.124588
-97.682190
-87.941635
-79.011627
-71.954758
-67.337204
-65.123260
-64.819321
-65.783859
-67.290390
-68.683609
-69.428589
-69.177246
-67.840454
-65.610489
-62.647446
-58.995499
-54.560379
-49.180359
-42.894653
-36.019440
-29.056107
-22.485748
-16.511139
-11.000305
-5.635117
-0.218658
5.356384
10.989288
16.608917
22.255585
28.127075
34.460449
41.398621
48.891296
56.708679
64.530731
72.086578
79.296051
86.389221
93.679535
101.397247
109.547729
118.113068
127.342010
138.036835
151.304565
167.788055
186.697662
205.202423
218.850494
222.861603
213.804657
190.768890
155.541016
111.812653
63.865479
15.656250
-29.610840
-69.499786
-102.158905
-126.419525
-142.062927
-149.890472
-151.539612
-149.051727
-144.257751
-138.337143
-131.736359
-124.350891
-115.875717
-106.200302
-95.620880
-84.985886
-75.500961
-68.273041
-63.899399
-62.292908
-62.709885
-64.007126
-65.188431
-65.507263
-64.550735
-62.285187
-58.835526
-54.524887
-49.677979
-44.450119
-38.805527
-32.549347
-25.513824
-17.763321
-9.722931
-1.993042
4.905182
10.755096
15.756744
20.479462
25.668488
32.175140
40.549194
50.873596
62.597473
74.590576
85.657349
94.957886
102.580170
109.443909
117.076691
126.928528
139.728210
155.280609
172.216644
188.094818
199.650299
203.242737
195.714355
175.287750
142.352936
99.571548
51.342453
2.635742
-42.113068
-79.643311
-108.199524
-127.382065
-137.912872
-141.290634
-139.470947
-134.370728
-127.547150
-119.872971
-111.634766
-102.803116
-93.300720
-83.213470
-72.856552
-62.792999
-53.727493
-46.456879
-41.683609
-39.732437
-40.245407
-42.291656
-44.593887
-46.028107
-45.997360
-44.417206
-41.485352
-37.419418
-32.215088
-25.827667
-18.308029
-10.047531
-1.649872
6.247971
13.295792
19.555740
25.459763
31.705414
38.930969
47.543884
57.536911
68.606964
80.135284
91.493698
102.249924
112.299545
122.053940
132.457062
144.876236
160.726715
180.603836
203.401947
225.904465
243.054016
249.287369
240.354233
214.723236
174.059708
122.759338
66.565140
11.174278
-38.839485
-80.479286
-112.509941
-135.286560
-150.238312
-159.369049
-164.538788
-167.049744
-167.578964
-166.336914
-163.479218
-159.259644
-153.784882
-147.007278
-138.852127
-129.425476
-119.491608
-110.373062
-103.551407
-99.970367
-99.597504
-101.361053
-103.677765
-105.113113
-104.791077
-102.600029
-98.904663
-94.248749
-89.058235
-83.571747
-77.890556
-72.045822
-66.201950
-60.593727
-55.491055
-51.023064
-47.024517
-43.079155
-38.696266
-33.570812
-27.674385
-21.238548
-14.602608
-8.081383
-1.929459
3.663765
8.540230
12.760681
16.720520
21.134354
26.666939
33.550285
41.345184
49.041359
55.587555
60.515396
64.085983
67.205276
70.884995
75.891174
82.646759
91.225937
101.427368
112.772873
124.483826
135.600662
145.345795
153.545898
160.943710
169.073563
179.703613
193.972092
211.706268
230.923019
248.018921
258.458801
257.871155
243.151138
213.377823
170.127304
117.127502
59.477303
2.646378
-48.578194
-90.627846
-121.730637
-141.972946
-153.099243
-157.868546
-159.179840
-159.215302
-158.874954
-157.947937
-155.624084
-151.197083
-144.526016
-136.019150
-126.528168
-117.049744
-108.626961
-102.205139
-98.488693
-97.688782
-99.305740
-102.181618
-104.849365
-106.089081
-105.345604
-102.748779
-98.894730
-94.438103
-89.762009
-84.926407
-79.901833
-74.655891
-69.266083
-63.878960
-58.568783
-53.278660
-47.758366
-41.616558
-34.596466
-26.766438
-18.657108
-11.004009
-4.458900
0.888359
5.618202
10.620918
16.597992
23.559845
30.870041
37.677116
43.471008
48.426338
53.300270
59.002380
66.051109
74.470024
83.925125
93.979073
104.221222
114.273888
123.759155
132.465088
140.522644
148.580292
157.701340
169.027252
183.211960
199.946716
217.688782
233.592957
243.987671
244.980789
233.450256
208.124405
169.994934
122.250053
69.498161
16.574440
-32.402428
-74.616516
-108.591621
-133.883545
-150.818436
-160.349060
-163.951050
-163.328049
-160.126221
-155.528503
-150.069351
-143.730972
-136.230453
-127.413063
-117.510826
-107.221985
-97.544594
-89.546783
-84.141190
-81.687302
-81.964424
-84.120865
-86.954842
-89.297028
-90.240746
-89.412003
-86.950302
-83.301079
-79.013840
-74.542618
-70.116913
-65.808914
-61.511147
-57.063793
-52.381725
-47.434593
-42.336216
-37.301903
-32.553795
-28.205956
-24.195194
-20.176220
-15.552292
-9.693108
-2.242401
6.640717
16.182747
25.339821
33.223183
39.604050
45.048500
50.571274
57.089806
65.087090
74.420830
84.597946
95.184929
105.936279
116.735100
127.524887
138.288269
149.204498
160.897644
174.147949
189.350891
205.643097
220.412201
229.736420
229.367981
216.160431
189.168549
150.002625
102.323807
50.844559
0.288383
-45.426208
-83.609604
-112.869431
-133.091843
-145.108948
-150.503281
-151.201172
-149.026199
-145.315399
-140.818878
-135.616638
-129.350754
-121.651787
-112.424400
-102.068886
-91.449013
-81.547379
-73.195396
-66.931549
-62.883949
-60.849045
-60.340797
-60.627121
-60.902275
-60.474945
-58.903725
-56.188568
-52.590500
-48.441063
-43.837135
-38.621216
-32.483139
-25.199547
-16.953568
-8.271843
0.109779
7.573647
13.958115
19.592094
25.212074
31.742920
39.875900
49.686272
60.642883
71.791084
82.164108
91.276161
99.401512
107.432266
116.639626
128.178787
142.686081
159.913361
178.280640
194.822922
205.394531
205.665649
192.331390
164.453552
124.026886
75.573807
24.822281
-22.859497
-63.726639
-95.856415
-118.978104
-133.759918
-141.240814
-142.663651
-139.350250
-132.668396
-123.944267
-114.219955
-104.097488
-93.831345
-83.470230
-73.028862
-62.706070
-52.981293
-44.551659
-38.127110
-34.236984
-32.979988
-33.911980
-36.131096
-38.431000
-39.667419
-38.890686
-35.512375
-29.493202
-21.356567
-12.084667
-2.778919
5.710022
13.203621
20.198254
27.586941
36.147552
46.124561
57.199406
68.696579
79.943481
90.624008
100.770706
110.810272
121.422134
133.492828
147.949692
165.271454
184.930466
204.851562
221.393890
230.127258
226.977798
209.517654
177.706177
133.930984
82.320053
27.775442
-25.038988
-72.319702
-111.487274
-141.241028
-161.397537
-172.623795
-176.340530
-174.496490
-169.230621
-162.555847
-155.803955
-149.441269
-143.048523
-135.806488
-127.138626
-117.198624
-107.000504
-97.942757
-91.214211
-87.365906
-86.152977
-86.759285
-88.188622
-89.510468
-89.914238
-88.818077
-85.818336
-80.819069
-74.103386
-66.228912
-58.025902
-50.221687
-43.313019
-37.314796
-31.856384
-26.283333
-19.956009
-12.538353
-4.060379
5.029816
14.239136
23.319801
32.461491
42.071789
52.547783
63.967518
75.988899
88.088722
99.753784
110.640656
120.592491
129.625854
137.989075
146.422256
156.211884
168.890228
185.592773
206.145813
228.394135
248.256271
260.669067
260.951569
246.177460
215.947784
172.357117
119.470413
62.254395
5.729317
-45.813995
-89.298714
-123.052452
-146.858246
-161.777466
-169.784607
-173.183929
-174.026321
-173.593369
-172.161407
-169.302429
-164.325439
-156.874176
-147.242035
-136.391754
-125.587410
-115.961060
-108.213699
-102.534424
-98.815231
-96.814774
-96.119232
-96.178314
-96.241669
-95.538696
-93.536301
-90.129135
-85.691925
-80.818779
-76.017326
-71.523994
-67.301567
-63.142685
-58.814743
-54.210953
-49.280617
-44.019661
-38.413002
-32.482277
-26.348358
-20.212250
-14.335052
-8.878803
-3.752350
1.406639
7.227367
14.220409
22.506268
31.640244
40.773346
49.046688
56.037949
62.019508
67.755692
74.185295
81.919853
91.141449
101.617149
112.919189
124.568916
136.037109
146.843918
156.712158
165.934296
175.520386
186.994766
201.659180
219.596298
238.915070
255.822693
265.551422
263.737793
247.660004
216.964920
173.544586
120.976303
63.736927
6.491695
-46.439686
-91.571541
-126.722328
-151.133392
-165.591705
-172.068573
-173.021149
-170.732544
-166.767197
-161.864105
-156.067200
-149.160339
-141.055679
-131.958557
-122.367043
-112.924881
-104.292862
-97.012444
-91.430229
-87.717194
-85.860168
-85.606323
-86.450333
-87.692856
-88.579803
-88.421349
-86.875610
-83.895996
-79.794083
-75.012177
-70.009460
-65.053848
-60.216373
-55.278927
-49.940056
-43.994812
-37.486725
-30.768740
-24.258389
-18.117119
-12.183211
-6.094450
0.435416
7.449380
14.667076
21.772909
28.544289
34.874489
40.774483
46.206589
51.188026
56.019840
61.357719
68.063614
76.799820
87.623413
99.796021
112.132477
123.551834
133.557602
142.345764
150.663940
159.525513
170.038025
183.160461
199.335281
217.871796
236.477661
251.234268
257.400452
250.741608
228.879440
192.127441
143.472610
87.718697
30.382484
-23.520733
-70.251038
-107.706131
-135.441925
-154.250336
-165.637238
-171.311111
-172.782867
-171.221146
-167.479370
-162.217026
-155.856140
-148.521622
-140.071106
-130.329559
-119.417976
-108.052864
-97.470413
-89.011162
-83.630859
-81.439812
-81.727524
-83.310013
-84.879189
-85.486984
-84.698517
-82.558723
-79.392021
-75.667282
-71.703819
-67.686409
-63.611809
-59.403076
-55.022007
-50.463329
-45.741196
-40.882172
-35.778763
-30.233013
-23.983730
-16.880930
-8.963570
-0.496136
8.047394
16.203320
23.680222
30.484882
36.957542
43.546314
50.644943
58.367382
66.620071
75.204773
84.059273
93.257156
102.844109
112.659744
122.222847
130.994965
138.853302
146.360748
154.877792
166.120392
181.331818
200.489990
221.711517
241.384964
254.818970
257.390076
245.786163
218.872757
178.104538
127.154266
71.092606
15.196026
-36.048828
-79.563629
-113.893753
-138.965210
-155.783920
-165.849472
-170.785843
-172.014908
-170.487335
-166.754471
-161.164627
-153.905884
-145.160919
-135.167770
-124.235298
-112.865097
-101.937340
-92.512238
-85.683784
-82.011673
-81.300224
-82.480354
-84.084755
-84.817238
-83.980652
-81.683456
-78.420074
-74.750053
-71.012291
-67.224251
-63.225159
-58.780525
-53.606243
-47.448647
-40.259369
-32.255745
-24.000122
-16.182465
-9.252754
-3.201153
2.377190
8.038624
14.074902
20.409451
26.796455
32.987835
39.013798
45.130283
51.633858
58.723396
66.474670
74.916107
83.996231
93.581413
103.361725
112.853325
121.781250
130.302017
139.235275
149.880753
163.513184
180.791718
201.114105
222.346848
240.962891
252.729156
253.556107
240.479889
212.538284
171.008392
119.302505
62.208588
5.004807
-47.556385
-91.981339
-126.417740
-150.613510
-165.646179
-173.339859
-175.681030
-174.285690
-170.312073
-164.421707
-157.052353
-148.598679
-139.398300
-129.699615
-119.649261
-109.462013
-99.630730
-90.950325
-84.332222
-80.364014
-78.965729
-79.265999
-80.016472
-80.086182
-78.945992
-76.783493
-74.197342
-71.778183
-69.751045
-67.917252
-65.834106
-63.033028
-59.207024
-54.285698
-48.388832
-41.756512
-34.726871
-27.581455
-20.514902
-13.482447
-6.283255
1.431789
9.966242
19.417099
29.549049
39.774467
49.398804
57.898323
65.227386
71.944565
78.912384
86.857574
95.983505
105.839958
115.573677
124.493805
132.473145
140.072708
148.350555
158.522659
171.535355
187.704865
206.404419
225.628586
242.039734
251.309341
249.124207
232.550385
200.931702
156.316956
102.872375
45.826027
-9.729647
-59.650826
-101.189117
-133.042892
-155.207581
-168.779556
-175.509521
-177.368851
-176.063232
-172.710709
-167.853210
-161.588867
-153.897873
-144.846436
-134.700241
-123.998535
-113.471481
-103.949120
-96.187653
-90.593262
-87.132370
-85.356186
-84.510880
-83.876091
-82.892426
-81.247086
-78.826614
-75.579338
-71.565208
-66.926773
-61.936638
-56.855919
-51.882271
-47.079056
-42.321770
-37.508263
-32.586617
-27.710796
-23.170273
-19.262358
-16.140491
-13.624714
-11.314102
-8.567947
-4.782127
0.496861
7.427876
15.799389
25.191399
34.988312
44.599709
53.615753
61.964470
69.805527
77.546913
85.656456
94.454407
104.011444
114.067131
124.190002
133.889282
142.931610
151.489075
160.292358
170.482986
183.163437
198.854736
216.776672
234.471893
248.046677
252.994415
245.333557
222.800446
185.630478
136.522827
80.094444
21.794800
-33.194321
-80.841347
-118.765030
-146.265457
-164.008789
-173.616486
-177.020386
-176.104492
-172.417816
-167.097565
-160.840973
-153.956970
-146.463730
-138.195053
-129.022034
-119.117401
-109.078674
-99.831360
-92.333145
-87.112350
-84.062202
-82.404579
-81.066185
-79.161942
-76.314079
-72.670250
-68.685837
-64.811745
-61.189697
-57.729263
-54.146591
-50.160400
-45.607872
-40.432873
-34.783833
-28.907522
-23.151154
-17.866512
-13.107132
-8.655106
-4.002140
1.385788
7.836605
15.341339
23.556427
32.054245
40.480652
48.721016
56.872246
65.207199
73.996666
83.394974
93.354652
103.620720
113.760254
123.294525
131.919998
139.739532
147.404190
156.033844
166.917740
180.868835
197.568680
215.026550
229.583923
236.635620
231.810028
212.425507
178.334244
132.092087
78.285995
22.318954
-30.757710
-77.140129
-114.656860
-142.638840
-161.684967
-173.103973
-178.404999
-178.925278
-175.688721
-169.441299
-160.897263
-150.875168
-140.299911
-129.872879
-119.913101
-110.391319
-101.235085
-92.668831
-85.318550
-79.940598
-76.989540
-76.228287
-76.754135
-77.433853
-77.359001
-76.217865
-74.242981
-71.849037
-69.290962
-66.414307
-62.731117
-57.729500
-51.176315
-43.356010
-35.059967
-27.213388
-20.538929
-15.234852
-10.868942
-6.607674
-1.653812
4.470123
11.709175
19.590988
27.438190
34.640064
40.947281
46.519722
51.940453
57.995811
65.403313
74.455963
84.756134
95.392693
105.235771
113.551270
120.487228
127.196014
135.402740
146.799789
162.114471
180.659485
200.111206
216.790649
226.321899
224.597626
208.835632
178.409454
135.295547
83.699226
29.136543
-22.849220
-67.926590
-103.628540
-129.391159
-146.101929
-155.373398
-158.925446
-158.282501
-154.663635
-149.032471
-142.096893
-134.291626
-125.708702
-116.239761
-105.762009
-94.404373
-82.752190
-71.895432
-63.134315
-57.533554
-55.304672
-55.735764
-57.322144
-58.430550
-57.900612
-55.498550
-51.828354
-47.851631
-44.318260
-41.341446
-38.351692
-34.476173
-28.937813
-21.513214
-12.595230
-2.963303
6.625168
15.703987
24.266174
32.701134
41.472679
50.812004
60.591957
70.401901
79.757332
88.417114
96.474480
104.279427
112.414452
121.543030
132.384064
145.610077
161.397110
178.871124
195.639374
207.837585
210.942169
201.159683
176.773224
138.940033
91.490288
39.833061
-10.498970
-55.042664
-91.068451
-117.566978
-134.849396
-144.053726
-146.715729
-144.442444
-138.780518
-131.085068
-122.352676
-113.275620
-104.209358
-95.170006
-86.075783
-76.903236
-67.893379
-59.652893
-52.924713
-48.311012
-46.066826
-45.801071
-46.741783
-47.954140
-48.606438
-48.109573
-46.159485
-42.657784
-37.638184
-31.292831
-23.934807
-15.942703
-7.709908
0.484421
8.617973
16.862717
25.549942
35.070625
45.637756
57.261795
69.610672
82.117966
94.213577
105.449425
115.687401
125.245224
134.894669
145.851257
159.524475
176.948349
197.952362
220.505127
240.556290
252.836670
252.326721
235.816040
202.969330
156.416580
100.868294
41.873726
-15.381259
-66.747696
-109.442207
-142.051819
-164.483505
-177.861557
-184.094986
-185.392776
-183.660736
-180.094086
-175.157928
-168.804199
-160.902313
-151.543884
-141.167358
-130.524078
-120.462036
-111.771088
-104.988174
-100.298889
-97.537132
-96.201523
-95.539642
-94.785263
-93.260109
-90.610962
-86.835846
-82.243225
-77.307236
-72.395859
-67.625443
-62.793480
-57.570068
-51.768867
-45.449490
-38.943523
-32.591553
-26.554859
-20.696281
-14.698792
-8.292995
-1.350892
6.112507
14.027570
22.374386
31.149189
40.263947
49.407146
58.272850
66.708488
74.902832
83.353058
92.610199
102.920189
114.108711
125.576569
136.669037
147.044571
156.983276
167.421463
179.674927
194.786850
212.726288
231.733093
248.199982
257.311127
254.434845
236.549042
203.292938
157.123657
102.621140
45.196697
-10.136394
-59.570835
-100.725433
-132.551834
-155.005127
-168.819473
-175.204590
-175.773041
-172.294052
-166.476578
-159.651031
-152.578964
-145.355957
-137.641327
-129.002609
-119.334015
-109.154037
-99.469086
-91.379517
-85.685188
-82.586525
-81.684677
-82.182755
-83.206673
-84.009277
-84.013123
-82.945625
-80.753586
-77.575630
-73.672989
-69.244072
-64.359406
-58.930923
-52.860352
-46.175526
-39.124737
-32.043907
-25.252558
-18.857067
-12.736897
-6.559124
0.013972
7.224299
15.108676
23.497667
32.051559
40.405777
48.390823
56.107704
63.915279
72.397141
81.975510
92.664795
103.978607
115.150772
125.427483
134.467957
142.559494
150.572144
159.772247
171.486435
186.584320
204.928741
224.869125
243.116119
255.198532
256.501587
243.528946
214.983459
172.244507
119.087219
60.696896
2.524740
-50.827484
-96.215942
-132.086609
-158.231628
-175.411377
-184.920731
-188.243805
-186.809265
-181.944397
-174.743683
-165.980698
-156.179520
-145.642517
-134.552338
-123.151649
-111.859505
-101.349274
-92.350601
-85.471672
-81.002693
-78.763710
-78.142029
-78.288284
-78.332993
-77.718712
-76.189636
-73.854919
-70.956215
-67.745148
-64.318886
-60.645454
-56.623104
-52.147842
-47.194866
-41.763226
-35.844425
-29.530285
-23.019716
-16.674789
-10.818178
-5.602306
-0.899792
3.700794
8.718861
14.504337
21.093288
28.274559
35.777206
43.395725
51.121258
59.061005
67.370705
76.113411
85.269966
94.750450
104.360573
113.757111
122.512718
130.340149
137.372070
144.326355
152.423065
163.042786
177.187912
194.844528
214.604736
233.480820
247.329468
251.665543
242.778076
218.792099
180.415802
130.850357
75.003555
18.249779
-34.647541
-80.337769
-117.082809
-144.440430
-162.958969
-173.847961
-178.623978
-178.927155
-176.088699
-171.020203
-164.205597
-155.861343
-146.170868
-135.406601
-124.024414
-112.666489
-102.112656
-93.154358
-86.446632
-82.293343
-80.386147
-79.921738
-79.818405
-79.160606
-77.494308
-74.799080
-71.362106
-67.421196
-63.026051
-58.050465
-52.379612
-46.188828
-39.824852
-33.735752
-28.302807
-23.617397
-19.459114
-15.416691
-10.950462
-5.625053
0.738194
8.009251
15.766941
23.556328
31.122383
38.515533
46.008095
53.917374
62.464851
71.660072
81.429222
91.660828
102.157516
112.592522
122.575150
131.814911
140.420746
149.188522
159.419708
172.490234
189.011780
208.115509
227.086700
241.805542
247.641251
240.753601
219.119324
183.116882
135.483521
80.636230
23.664734
-30.695366
-78.796021
-118.416321
-148.714722
-169.878922
-182.827332
-188.887070
-189.574768
-186.426331
-180.690765
-173.212891
-164.454117
-154.457153
-143.243698
-131.001938
-118.313408
-106.092850
-95.380318
-86.981476
-81.253479
-78.026237
-76.752762
-76.677658
-77.073586
-77.313309
-76.897545
-75.519638
-73.019501
-69.381332
-64.805908
-59.535652
-53.888649
-48.079945
-42.159679
-36.076153
-29.782925
-23.292027
-16.652779
-9.936615
-3.055466
4.064590
11.395317
18.768753
25.891106
32.649193
39.253685
46.241829
54.230728
63.535301
73.958649
84.824631
95.332176
104.939522
113.570900
121.683540
130.047287
139.493851
150.974106
165.170425
182.094086
200.551697
217.704224
229.363556
230.891541
218.683990
191.407410
150.623932
100.333900
45.918091
-7.103592
-54.300766
-92.786270
-121.279411
-139.889923
-149.692841
-152.415802
-149.934494
-144.002563
-135.946930
-126.639839
-116.540367
-105.845863
-94.701706
-83.238403
-71.730476
-60.611649
-50.503716
-42.136864
-36.254036
-33.341736
-33.326927
-35.491989
-38.444237
-40.501205
-40.182922
-36.738068
-30.383919
-22.100899
-13.136513
-4.466583
3.572990
11.280014
19.246719
27.975998
37.608658
48.026428
59.002457
70.337952
81.837631
93.190674
103.999237
113.911446
123.048141
132.207230
142.843689
156.409271
173.466705
192.933594
211.767120
225.576797
229.722351
220.672348
196.894165
159.192490
110.426872
54.812794
-2.692857
-57.169113
-104.395531
-141.442520
-167.094849
-182.003693
-188.228760
-188.535721
-185.488449
-180.837311
-175.376862
-169.156219
-161.867569
-153.210388
-143.072021
-131.591034
-119.217697
-106.834663
-95.502457
-86.285835
-79.805832
-76.049820
-74.346863
-73.670364
-72.930168
-71.385468
-68.731865
-64.968445
-60.292843
-54.876484
-48.743507
-41.800735
-33.974316
-25.258427
-15.842396
-6.139668
3.411240
12.455235
20.967369
29.413387
38.538757
49.005390
60.992577
74.091789
87.465027
100.313934
112.224365
123.255035
133.852264
144.539276
155.933945
168.764984
183.930847
202.026611
222.630981
243.608246
260.949890
269.645294
265.171661
245.010345
209.423004
161.166260
104.507744
44.176743
-15.405731
-70.455101
-117.839752
-155.269485
-181.586243
-197.111526
-203.639008
-203.955566
-200.899078
-196.534103
-191.649643
-185.794617
-178.037277
-167.684662
-154.966629
-141.047058
-127.679214
-116.514175
-108.462311
-103.508804
-100.827820
-99.335571
-98.147858
-96.706528
-94.774933
-92.309647
-89.275299
-85.657867
-81.494308
-76.916763
-72.187088
-67.620834
-63.450203
-59.705093
-56.117851
-52.072884
-46.932617
-40.314217
-32.398819
-23.920654
-15.868866
-8.990913
-3.448189
1.321663
6.297340
12.319443
19.770432
28.418629
37.586887
46.503681
54.644081
61.835678
68.241035
74.287514
80.478249
87.225166
94.811317
103.327003
112.647324
122.493446
132.449280
142.073227
151.067963
159.527100
168.135773
178.154327
190.971497
207.286560
226.267502
245.038788
259.091461
263.583466
254.746567
231.078430
193.507401
144.921249
89.285721
30.845760
-26.165493
-77.775436
-120.582314
-152.314651
-172.372696
-181.997574
-183.855484
-181.037766
-175.986359
-169.929932
-162.954239
-154.532196
-144.200348
-131.980423
-118.303177
-103.891045
-89.555199
-76.196678
-64.795914
-56.338501
-51.560310
-50.626198
-52.805832
-56.602386
-60.221214
-62.173973
-61.809441
-59.391502
-55.763374
-51.792603
-47.978668
-44.363266
-40.732155
-36.876266
-32.741043
-28.421432
-24.003639
-19.541092
-15.030540
-10.507042
-6.028645
-1.589630
2.875736
7.519379
12.459732
17.711674
23.187111
