1426085061.000000
64.000000
0.000000
0.000000
0.000000
0.000000
0.000000
0.000000
0.000000
0.000000
0.000000
0.002177
-0.004606
-0.011354
-0.011393
0.001342
0.026232
0.050956
0.051369
-0.002092
-0.131474
-0.356894
-0.659248
-1.007003
-1.364591
-1.709008
-2.040677
-2.382813
-2.769552
-3.223614
-3.780547
-4.402911
-5.041404
-5.642811
-6.176345
-6.651868
-7.119574
-7.649559
-8.285069
-9.120181
-10.065575
-11.012310
-11.846716
-12.517134
-13.081083
-13.703300
-14.598944
-15.915567
-17.872202
-20.271294
-22.842896
-25.293880
-27.464504
-29.436611
-31.529741
-34.176838
-37.686184
-42.423260
-48.021854
-53.951126
-59.630711
-64.714462
-69.280228
-73.820648
-79.029289
-85.416885
-93.492714
-102.724930
-112.304787
-121.346268
-129.299561
-136.218384
-142.742081
-150.188492
-157.251297
-166.159988
-177.486298
-191.318390
-206.443298
-219.943863
-227.490189
-224.466095
-207.554962
-175.952209
-132.108841
-79.880753
-23.541153
33.795593
90.714417
147.053070
202.952728
258.081177
311.515289
361.724426
407.755402
448.912903
484.626617
514.024414
535.698975
547.873047
548.775574
537.325928
513.315918
477.963837
433.390381
382.212494
327.036041
270.081940
213.046204
157.185303
103.543304
53.003998
6.568787
-34.871964
-70.667328
-100.545288
-124.667816
-143.547119
-157.894241
-168.405579
-175.686981
-180.125412
-181.989685
-181.514633
-178.976624
-174.728073
-169.180557
-162.745987
-155.763428
-148.470657
-141.004517
-133.428177
-125.785172
-118.118622
-110.492386
-102.980469
-95.651367
-88.553543
-81.718460
-75.158508
-68.880844
-62.892681
-57.205254
-51.825214
-46.761692
-42.014839
-37.582138
-33.453690
-29.623701
-26.083918
-22.825148
-19.844866
-17.136303
-14.691490
-12.503903
-10.563840
-8.857205
-7.374980
-6.093856
-4.996928
-4.069865
-3.290180
-2.641476
-2.105619
-1.669620
-1.314050
-1.031783
-0.808056
-0.630825
-0.496880
-0.397569
-0.324109
-0.275301
-0.248124
-0.234324
-0.233015
-0.247601
-0.266793
-0.296075
-0.328603
-0.369506
-0.407874
-0.449818
-0.490955
-0.533214
-0.575269
-0.615734
-0.656459
-0.698750
-0.739793
-0.783265
-0.830866
-0.882157
-0.941880
-1.011498
-1.096149
-1.193656
-1.311665
-1.450518
-1.610256
-1.797865
-2.011472
-2.255158
-2.525315
-2.832396
-3.166661
-3.538464
-3.940732
-4.381985
-4.848049
-5.352407
-5.882333
-6.437807
-7.021326
-7.619937
-8.252510
-8.912786
-9.601553
-10.326107
-11.087717
-11.902364
-12.746203
-13.600099
-14.446218
-15.269713
-16.076910
-16.883202
-17.696825
-18.512453
-19.277359
-19.862318
-20.139126
-19.955669
-19.208843
-17.786644
-15.649061
-12.802111
-9.292248
-5.221397
-0.677383
4.137970
9.054321
13.792805
18.108765
21.742706
24.388783
25.778511
25.768795
24.488152
22.083855
18.792255
14.751514
10.172394
5.202888
-0.131603
-5.742764
-11.448856
-16.618984
-20.703533
-23.097073
-23.493626
-21.751884
-17.942001
-12.425556
-5.663734
1.966469
10.623158
20.365005
31.371887
43.476074
56.359371
69.647430
82.642639
94.674263
103.408318
109.190826
112.001968
113.521423
113.094688
111.106522
109.225021
108.790955
109.558411
108.599365
101.175659
82.339432
49.849640
5.562248
-45.031033
-94.265671
-135.597290
-165.031326
-181.061127
-183.256775
-172.097992
-148.967255
-114.766342
-77.230850
-44.691944
-23.278355
-14.809401
-16.670340
-23.592899
-30.747042
-35.519749
-37.676395
-38.599579
-39.000793
-39.017708
-38.472977
-37.399292
-35.995033
-34.671959
-33.780712
-33.235657
-32.871979
-31.942585
-29.797409
-26.218596
-21.423740
-15.913891
-10.198997
-4.663580
0.702827
5.837231
10.974663
16.168270
21.202412
25.721081
29.440529
32.278130
34.351086
36.279209
38.354252
40.639889
42.769791
44.190327
44.471085
43.617786
42.106064
40.614906
40.366623
41.860947
44.811668
48.313648
51.410244
53.424347
54.494785
55.315121
56.727894
60.284615
67.032089
77.594559
92.075172
109.689270
128.680756
146.579010
161.239380
165.974762
158.549316
140.060303
114.358536
86.111679
58.499565
31.992697
4.752378
-25.554596
-59.864738
-95.855583
-129.785904
-158.169510
-179.395355
-194.099777
-204.245117
-211.572845
-216.596130
-218.651627
-215.878586
-207.460144
-194.265564
-178.663422
-163.504807
-150.849899
-141.177231
-133.442337
-125.840591
-116.500153
-104.814850
-91.584396
-78.451218
-67.052856
-58.186813
-51.513912
-45.869339
-39.947884
-32.745995
-24.151888
-14.760708
-5.368170
3.540115
12.033398
20.674038
30.053368
40.334427
50.944244
60.529823
67.291168
69.534180
66.127098
57.161354
43.690460
27.408325
10.351471
-5.436005
-18.409042
-27.837906
-33.880096
-37.280472
-38.675140
-38.500580
-37.052994
-34.494324
-31.048920
-27.103378
-23.269730
-20.160873
-18.117310
-16.490204
-14.635742
-12.515350
-10.584778
-9.254730
-8.400787
-7.177673
-4.320496
1.426453
12.085999
27.702393
45.545380
61.582306
72.776093
78.342285
79.541412
78.632568
77.630493
80.530853
88.170715
97.064270
101.938202
99.610809
90.672699
78.480927
67.369415
60.842682
65.552521
83.303345
109.271881
135.300110
155.722839
169.398041
178.308838
185.537445
193.996490
212.616638
246.350708
292.709656
344.037262
392.870789
433.779877
462.710815
476.948669
434.009827
322.485779
171.435577
27.146118
-82.395721
-153.832123
-196.071289
-219.734039
-232.818237
-240.200745
-238.111847
-225.096863
-205.691132
-187.581497
-175.487823
-169.356232
-166.739029
-164.907501
-162.270004
-153.659027
-137.835480
-119.577362
-106.231400
-101.329956
-102.152878
-101.675156
-92.063240
-68.600609
-29.061058
21.403137
72.499084
112.172821
133.769623
138.136810
130.896088
118.948685
107.526825
100.804199
100.422241
105.616371
114.124016
123.233742
129.530121
128.240479
115.529572
90.652924
57.490971
23.100594
-5.829132
-25.013054
-33.313232
-32.404884
-26.389923
-19.172516
-13.513344
-10.911255
-12.242416
-19.428787
-34.296997
-57.928223
-85.135605
-112.234421
-136.385696
-155.940292
-170.704819
-181.465225
-191.064255
-201.542358
-212.585617
-221.721664
-226.704666
-226.053955
-219.899918
-209.875504
-198.596115
-191.027573
-191.154343
-199.453751
-212.576691
-225.518555
-232.769440
-229.993912
-215.144669
-175.404922
-109.944763
-30.844101
44.206238
102.807709
142.270279
167.029755
183.072891
194.195038
201.154266
200.780807
188.860733
163.802032
127.028809
81.518494
30.855789
-20.978806
-69.457230
-110.164917
-132.066467
-129.889771
-105.704178
-68.516129
-30.183495
0.127853
18.969208
28.211899
32.190079
33.619156
32.238068
27.411026
19.695541
11.164726
4.480713
1.487026
2.657623
7.129505
13.017361
17.798225
20.390656
21.412176
22.312944
25.036489
30.450247
38.287788
47.528782
56.711922
64.341583
70.040848
74.781296
80.276543
87.803177
96.991005
105.671204
110.646477
109.298706
100.898529
87.374657
72.581932
60.707878
54.509480
54.440735
59.023304
66.154419
72.305290
75.283516
73.815125
67.486038
56.740631
43.008488
28.674061
16.602161
9.177298
7.336727
10.430103
16.425709
22.709961
26.940582
27.364216
22.777779
12.506359
-3.392395
-23.806171
-46.295330
-67.834885
-85.777367
-98.856758
-107.607773
-113.974960
-120.508713
-128.893890
-139.133530
-149.391266
-156.726654
-158.021835
-150.811417
-133.990952
-108.203362
-75.911362
-40.559395
-5.516205
26.972610
56.168724
82.749100
108.288544
134.553574
162.589600
191.635513
219.753143
244.260498
262.449646
272.143250
272.309143
263.799835
249.566971
234.232285
221.328934
213.749557
212.754776
217.031509
222.518860
223.805023
216.657318
199.936722
175.815994
145.154205
109.886383
72.542114
35.500488
0.012878
-33.488312
-64.364532
-91.595367
-114.306000
-137.878693
-167.057556
-203.608368
-246.242493
-293.262238
-344.407166
-400.455261
-461.864960
-527.061279
-597.964478
-670.889893
-736.170898
-782.226990
-802.210083
-797.279846
-774.613892
-743.307251
-669.477356
-541.206543
-373.793365
-201.841736
-55.206360
53.611694
125.929840
169.918442
195.422699
211.257278
217.144791
212.553513
199.688843
183.643661
169.142258
158.631042
152.811432
150.999176
151.640015
147.739899
134.727783
113.112854
88.239265
67.078552
53.425934
50.181149
57.926376
74.899231
94.510002
111.127747
122.293434
129.038910
133.917740
139.369797
147.598038
160.292419
178.902557
202.872513
231.270035
262.565491
294.174316
322.144531
342.059082
351.021606
348.739990
337.638397
321.052429
302.164459
282.593597
261.993530
238.610138
210.766464
178.425354
143.554733
109.556610
79.898468
56.609375
39.533829
26.444321
14.045303
-0.685394
-19.184418
-41.016556
-64.123764
-85.781433
-103.599258
-116.266937
-123.887878
-127.714981
-129.685257
-131.585983
-134.518097
-138.524780
-142.663681
-145.545273
-145.939301
-143.362930
-138.174042
-131.389511
-124.247704
-117.773460
-112.584511
-108.797203
-106.047997
-103.596191
-100.363022
-94.998001
-86.285980
-73.617020
-57.458878
-39.595955
-22.762924
-10.067650
-4.056076
-6.102089
-16.072189
-32.518196
-53.136414
-75.182121
-95.993729
-113.351868
-125.809555
-132.883560
-135.160736
-133.966431
-130.991058
-127.718987
-124.975067
-122.790131
-120.317749
-116.066360
-108.299164
-95.713364
-77.926849
-55.755005
-31.084320
-6.261673
16.495926
35.712128
50.732803
61.634583
68.988266
73.757111
77.385773
81.591919
88.027924
97.516113
109.643494
122.733643
134.339691
142.230194
145.060242
142.735748
136.184052
126.970001
116.558594
105.990662
95.621979
85.488617
75.397644
65.080353
54.668335
44.720337
35.998993
29.163879
24.382141
21.388977
19.813568
19.072845
18.325378
16.651215
13.237427
7.719604
0.316711
-8.252106
-17.094604
-25.116211
-31.983246
-38.186737
-44.424286
-50.854675
-56.962311
-61.849182
-64.754028
-65.268982
-61.931763
-53.953430
-41.718292
-26.482574
-9.602997
7.720215
24.162567
38.073639
47.777039
54.513611
58.930786
60.584930
59.155853
56.097809
54.253540
55.926025
61.283020
68.313293
78.063232
90.079651
101.595459
109.422974
112.619263
112.650330
112.117584
113.831573
120.656464
140.698395
178.008789
229.095337
284.400726
333.534790
368.781464
386.553345
387.718750
342.857300
247.836670
127.289215
16.172943
-66.167877
-119.358734
-151.261200
-169.728882
-179.995667
-185.384583
-182.786835
-171.518066
-155.372406
-140.126419
-129.043427
-122.024414
-117.360550
-113.822495
-111.382202
-106.573868
-98.169617
-88.343475
-80.653473
-77.015137
-77.047791
-79.613823
-83.677292
-89.573257
-95.155510
-99.450996
-103.587952
-109.667725
-118.237617
-127.396370
-133.491730
-132.711639
-123.175407
-104.749176
-80.987259
-58.008797
-41.403484
-33.187248
-31.115150
-30.592234
-27.447617
-20.277233
-10.147760
-0.001223
7.287022
10.567570
10.790537
10.161671
9.925024
10.767562
12.457689
14.494925
16.613808
18.907312
21.594700
24.436363
26.485151
26.228764
22.423386
14.584707
3.523811
-8.940062
-20.570385
-29.485386
-34.800838
-36.754353
-36.529984
-35.761871
-36.260952
-39.584091
-46.628368
-57.290531
-70.415878
-84.141441
-96.438934
-105.836731
-111.718086
-114.327576
-114.389122
-112.548553
-109.137039
-104.068382
-97.262802
-88.831467
-79.227371
-69.123962
-59.190430
-50.000137
-41.897644
-35.022171
-29.136597
-23.480576
-16.552658
-6.243561
9.500427
31.750320
59.677734
90.410034
119.767242
143.633453
159.390991
166.624100
166.893188
162.645233
156.189285
148.927933
141.508316
134.289398
127.819321
122.705826
119.060730
115.969757
111.319824
102.610199
88.018280
67.456116
42.798737
17.287598
-5.600311
-23.194489
-34.205261
-38.794159
-38.052460
-33.639374
-27.415710
-21.126801
-16.264221
-13.612183
-13.163666
-13.951660
-14.463715
-13.096344
-8.782013
-1.390961
8.360931
19.080017
29.200378
37.310638
42.540985
44.600983
43.822388
40.861725
36.476593
31.361359
26.072235
21.061142
16.702240
13.322632
11.143723
10.233124
10.579041
12.092331
14.786652
18.627792
23.389572
28.489075
32.906891
35.472794
35.321777
32.300827
27.060059
20.806198
14.791153
9.900345
6.553223
4.733093
4.303314
5.081177
6.896484
9.542175
12.796097
16.542419
20.876663
26.169754
32.732941
40.568314
48.950607
56.501045
61.422630
62.067825
57.471481
47.644936
33.710167
17.545349
1.369751
-12.845451
-23.883926
-31.451859
-36.118546
-38.898346
-40.727402
-42.079578
-42.886246
-42.741367
-41.323330
-38.678375
-35.328075
-32.038853
-29.471087
-27.939644
-27.300421
-27.115799
-26.849670
-26.109539
-24.720383
-22.675344
-20.056765
-16.813957
-12.914745
-8.349926
-3.309437
1.869366
6.879089
11.609398
16.309181
21.362236
26.931328
32.557709
37.001915
38.521469
35.468292
27.009796
13.587967
-3.021255
-20.268440
-35.688637
-47.810371
-56.507286
-62.924942
-68.680252
-74.881500
-81.599632
-87.812019
-92.113113
-93.536224
-92.168884
-89.085464
-85.867538
-83.939484
-84.230347
-87.139023
-92.609146
-100.181442
-108.876282
-117.067200
-122.667450
-123.581635
-118.434753
-107.009796
-90.339645
-70.227493
-48.663986
-27.219902
-6.830818
12.140488
29.612755
45.505310
59.560760
71.179787
79.521675
83.729156
83.288040
78.290154
69.466042
58.001579
45.104439
31.728172
18.379326
5.397499
-6.788879
-17.398575
-25.363346
-29.799133
-30.376682
-27.543816
-22.418724
-16.344067
-10.412525
-5.024193
0.044178
5.425728
11.525108
18.193542
24.547037
29.313732
31.373610
30.307949
26.515839
21.029392
15.149683
10.121156
6.881642
6.079437
8.024721
12.782074
20.095068
29.506886
40.412575
52.201889
64.210953
75.646904
85.404739
92.122314
94.510162
91.662743
83.415695
70.415283
53.799026
34.943752
15.239832
-4.002042
-21.607101
-36.472702
-47.787167
-55.089737
-58.368187
-58.018589
-54.690201
-49.166595
-42.073235
-33.859566
-24.797129
-15.281240
-6.173343
1.148387
5.020400
4.294522
-1.005360
-9.334350
-18.052818
-24.397171
-26.598331
-24.429781
-19.028793
-11.995664
-4.546599
2.907434
10.596603
18.884830
27.791126
36.990231
46.070602
54.809025
63.028667
70.295174
75.516449
77.021347
73.039566
62.601242
46.217083
25.896946
4.673153
-14.472428
-29.450264
-39.465714
-44.858856
-46.569859
-45.681484
-43.104584
-39.560680
-35.658772
-31.900633
-28.486774
-25.327459
-22.126551
-18.688482
-15.248360
-12.515261
-11.574289
-13.278248
-17.743729
-24.064419
-30.479183
-34.988434
-35.986252
-32.864239
-25.992857
-16.553820
-5.984125
4.453714
13.960434
22.306610
29.731874
36.729641
43.705177
50.601803
56.650097
60.485718
60.505131
55.525169
45.336243
30.945618
14.381042
-1.981850
-16.040676
-26.468168
-32.869522
-35.580963
-35.350731
-32.905464
-28.830273
-23.509117
-17.248861
-10.451059
-3.746020
2.102116
6.378628
8.666163
9.017547
7.828604
5.693913
3.140102
0.584198
-1.639441
-3.179125
-3.535175
-2.192627
1.142111
6.345655
12.790297
19.497345
25.515213
30.319134
34.132324
37.929249
43.019588
50.399693
60.149406
70.978607
80.557205
86.185989
85.889069
79.115974
66.958832
51.691444
35.925026
21.832489
10.754219
3.189812
-0.961678
-2.001091
-0.373978
3.466866
9.039032
15.885712
23.671158
32.057587
40.744957
49.266357
56.880325
62.615082
65.524902
64.969131
60.993195
54.405518
46.651001
39.461823
34.286972
31.865311
32.083450
34.106720
36.803986
39.202011
40.884705
41.947876
43.054901
45.086609
48.814087
54.460388
61.367950
67.884918
71.620392
70.229187
62.053955
46.886047
26.054504
2.058838
-22.222107
-44.368744
-62.952484
-77.578308
-88.681671
-97.064423
-103.584747
-109.100555
-114.376984
-120.002930
-126.214508
-132.698059
-138.614410
-142.946075
-145.128784
-145.502869
-145.379944
-146.278137
-148.866608
-152.271301
-154.177948
-151.920654
-143.941895
-130.666290
-114.280151
-97.489410
-82.184021
-68.691895
-56.151611
-43.441101
-30.033813
-16.138123
-2.160950
11.899048
26.412903
41.557617
56.388794
68.553650
74.916931
72.933929
62.059723
44.333618
23.713562
4.372284
-11.098633
-22.622711
-32.119751
-42.021454
-53.510773
-65.485992
-74.827545
-77.684082
-71.246033
-54.951813
-30.782227
-2.630615
24.919983
47.739288
63.037476
69.683014
68.223297
60.541656
49.391907
37.813782
28.415558
22.930054
21.911865
24.730072
29.885803
35.536621
40.035828
42.430115
42.573090
40.988281
38.449799
35.624115
32.686676
29.233704
24.407410
17.142822
6.564270
-7.741211
-25.391937
-45.218170
-65.402313
-83.895569
-98.967896
-109.621826
-115.716370
-117.790863
-116.666931
-113.179413
-107.933105
-101.300018
-93.436127
-84.374176
-74.074432
-62.556274
-50.048218
-37.132690
-24.843689
-14.489075
-7.334656
-4.202484
-5.058533
-8.818390
-13.420349
-16.337494
-15.232666
-8.714386
3.217926
19.140900
36.784058
53.847961
68.882080
81.464386
91.858276
100.323273
106.429932
109.054810
106.896637
99.226135
86.477081
70.227570
52.623840
35.640228
20.481750
7.469208
-3.677444
-13.396027
-21.847824
-28.841583
-34.012619
-37.164291
-38.440063
-38.363907
-37.598801
-36.635101
-35.445084
-33.510956
-30.050964
-24.407852
-16.529022
-7.056580
2.777451
11.579102
18.269852
22.432495
24.374847
25.021149
25.566315
27.186371
30.692032
36.237686
43.146973
49.958145
54.740585
55.665817
51.615768
42.572235
29.678268
14.783417
-0.050583
-13.118027
-23.351761
-30.405350
-34.535553
-36.399849
-36.888176
-36.851311
-36.871788
-37.079727
-37.190659
-36.705849
-35.191154
-32.488327
-28.724373
-24.185936
-19.116524
-13.634407
-7.791954
-1.640488
4.596245
10.583122
15.985725
20.656456
24.728981
28.648087
33.038132
38.485176
45.453201
54.055824
63.932911
74.212532
83.544708
90.354530
93.143799
90.910095
83.353348
70.988373
54.970947
36.892490
18.461376
1.326859
-13.072979
-23.680359
-29.983681
-32.148617
-30.985691
-27.727905
-23.581123
-19.382179
-15.408337
-11.466515
-7.115173
-2.092823
3.514427
9.279686
14.604832
19.006538
22.309563
24.656418
26.414829
27.929775
29.290985
30.399277
31.068172
31.344116
31.735760
33.180561
36.651936
42.755478
51.267445
61.008083
69.982224
75.859543
76.525818
70.695457
58.363503
40.753189
20.132217
-0.805321
-19.712471
-35.026375
-46.143402
-53.248329
-56.789055
-57.271019
-55.130409
-50.874565
-45.215858
-39.067909
-33.320290
-28.627983
-25.227577
-22.922264
-21.308006
-19.963837
-18.540741
-16.874451
-14.863441
-12.404625
-9.452744
-5.969833
-2.000671
2.342819
6.929138
11.758682
17.003540
23.026978
30.282135
38.956436
48.654144
58.243805
65.903427
69.587646
67.628998
59.283585
45.041000
26.546219
6.145477
-13.711792
-31.056976
-44.695663
-54.287125
-60.103546
-62.735199
-62.779495
-60.718414
-56.948395
-51.815155
-45.777664
-39.368118
-33.208481
-27.859268
-23.734818
-20.965485
-19.387787
-18.589233
-17.970596
-16.932877
-14.998535
-11.967606
-7.935806
-3.196976
1.864182
6.973755
12.087570
17.459473
23.532227
30.812241
39.554169
49.599091
60.134232
69.631836
76.121078
77.618896
72.787384
61.430984
44.696182
24.761902
4.259644
-14.438339
-29.803024
-41.205994
-48.798477
-53.168915
-55.062332
-55.209305
-54.189041
-52.430389
-50.156525
-47.487640
-44.481277
-41.327423
-38.369171
-36.035477
-34.651108
-34.298325
-34.709991
-35.324585
-35.492432
-34.585953
-32.170380
-28.087021
-22.460785
-15.652283
-8.175995
-0.522186
6.995850
14.334381
21.765839
29.692413
38.438293
48.018250
57.841003
66.574432
72.284882
72.910675
66.933044
54.024658
35.372803
13.416168
-8.797546
-28.521088
-43.973419
-54.547516
-60.604019
-63.059586
-62.948456
-61.119339
-58.216599
-54.685089
-50.839218
-46.949585
-43.202423
-39.794418
-36.788467
-34.088959
-31.502228
-28.825439
-25.995483
-23.125412
-20.405624
-17.890808
-15.426804
-12.622131
-9.099319
-4.714722
0.333527
5.661011
10.914612
16.051804
21.471100
27.772110
35.475662
44.640717
54.560089
63.732544
70.161255
71.851410
67.425430
56.695251
40.790237
21.917206
2.670609
-14.671005
-28.633682
-38.713364
-45.073273
-48.206345
-48.649643
-46.895828
-43.510422
-39.172653
-34.684372
-30.721191
-27.692596
-25.550934
-23.954620
-22.453537
-20.766769
-18.875397
-16.955719
-15.186905
-13.566284
-11.818649
-9.521255
-6.295181
-2.008942
3.192474
8.911758
14.667313
20.123749
25.177582
30.062607
35.253036
41.285782
48.427322
56.338318
63.882584
69.259476
70.503128
66.218002
56.166321
41.466888
24.277191
7.027084
-8.232857
-20.340897
-28.991646
-34.500961
-37.474434
-38.589066
-38.470581
-37.705299
-36.761810
-35.875580
-35.077538
-34.149658
-32.800652
-30.804390
-28.074631
-24.818939
-21.503525
-18.653847
-16.733452
-15.840393
-15.640007
-15.466423
-14.545395
-12.351952
-8.741890
-4.047363
1.221664
6.579788
11.783966
16.906181
22.287956
28.359741
35.467384
43.632324
52.329769
60.437561
66.317772
68.264236
65.056824
56.435703
43.259125
27.283199
10.651104
-4.732128
-17.590477
-27.428108
-34.362537
-38.819405
-41.278423
-42.014996
-41.218079
-39.000248
-35.644131
-31.692963
-27.777349
-24.517481
-22.204153
-20.751970
-19.832428
-19.080288
-18.302006
-17.448824
-16.382336
-14.792983
-12.235024
-8.388157
-3.401757
2.092692
7.172166
11.139961
13.839590
15.762515
17.723709
20.476412
24.452255
29.696558
36.026272
43.065987
50.186424
56.364250
60.168190
60.113083
55.176903
45.340553
31.731861
16.270523
1.124374
-11.981293
-22.134705
-29.163177
-33.384346
-35.234608
-35.132946
-33.474236
-30.730461
-27.481918
-24.285759
-21.542210
-19.342030
-17.556633
-15.951309
-14.348774
-12.787445
-11.383751
-10.257690
-9.340080
-8.401062
-7.067192
-5.037224
-2.224617
1.180168
4.809685
8.332352
11.663162
15.035934
18.892197
23.702148
29.725731
36.931290
44.958855
53.160789
60.586548
66.056976
68.302734
66.232124
59.314644
47.942322
33.408112
17.678062
2.817024
-9.614914
-18.920670
-25.300850
-29.415504
-32.017036
-33.517754
-33.989815
-33.338715
-31.552444
-28.868027
-25.703789
-22.529884
-19.634895
-17.139908
-15.049774
-13.295265
-11.796974
-10.422867
-8.969582
-7.179962
-4.853233
-1.894775
1.623924
5.530197
9.617027
13.763916
17.955688
22.243416
26.874832
32.165283
38.469856
45.876801
53.947220
61.526787
66.909767
68.318733
64.484596
55.187706
41.439857
25.254189
9.129120
-4.704788
-14.850365
-21.037003
-23.960159
-24.874397
-24.929047
-24.805954
-24.574684
-23.893097
-22.352623
-19.809715
-16.457115
-12.715645
-9.090721
-6.013649
-3.750122
-2.427231
-1.939842
-1.903465
-1.593880
-0.108513
3.297668
8.914520
16.380989
24.656105
32.310257
38.013634
40.966629
41.166016
39.497948
37.406494
36.389915
37.422684
40.510979
44.604233
47.949318
48.654106
45.337898
37.597134
26.055138
12.141365
-2.402435
-16.016418
-27.649548
-36.835812
-43.605457
-48.278976
-51.231709
-52.792946
-53.260052
-52.886189
-51.926895
-50.591141
-48.980064
-46.997578
-44.464161
-41.200527
-37.227409
-32.862183
-28.636675
-25.144760
-22.710642
-21.176004
-19.896267
-17.960443
-14.574673
-9.426479
-2.840811
4.433094
11.522221
17.869310
23.380217
28.432972
33.635429
39.575676
46.652149
54.879471
63.789768
72.358711
79.030548
82.072449
80.007774
72.208687
59.203285
42.620079
24.683651
7.589434
-7.088709
-18.609188
-27.007298
-32.752892
-36.489433
-38.830154
-40.286839
-41.278908
-42.076546
-42.722664
-43.009113
-42.654743
-41.374283
-39.140533
-36.229851
-33.166004
-30.543880
-28.786163
-27.979702
-27.773499
-27.430592
-26.122898
-23.256790
-18.745213
-13.092411
-7.178696
-1.840549
2.517265
6.123390
9.775703
14.484768
21.060501
29.790123
40.248764
51.276272
61.090473
67.665588
69.149109
64.433121
53.539154
37.737289
19.248516
0.713905
-15.520523
-27.815514
-35.573685
-39.143486
-39.511520
-37.910698
-35.450775
-32.909645
-30.645172
-28.750076
-27.189110
-25.893005
-24.778687
-23.698021
-22.434456
-20.835747
-18.953926
-17.026337
-15.381996
-14.161224
-13.095734
-11.627769
-9.173248
-5.445847
-0.643585
4.760376
10.201157
15.288246
19.960846
24.407112
29.048203
34.371109
40.796196
48.381538
56.506271
63.794128
68.299797
68.145920
62.247643
50.779816
35.222855
17.790688
0.756561
-14.190422
-26.183060
-35.042488
-40.982399
-44.396980
-45.745529
-45.437813
-43.883820
-41.476471
-38.496628
-35.107040
-31.421135
-27.541306
-23.677048
-20.086945
-17.095009
-14.920052
-13.507423
-12.509682
-11.333374
-9.407990
-6.400101
-2.357773
2.356354
7.285873
12.122681
16.818222
21.626968
26.931503
33.132919
40.543060
49.167130
58.541138
67.582382
74.659271
77.851334
75.589111
67.117111
52.966934
34.750946
14.763794
-4.689606
-21.720001
-35.208450
-44.802322
-50.791733
-53.799911
-54.650452
-54.139435
-52.873749
-51.254150
-49.395294
-47.243164
-44.663071
-41.467758
-37.598831
-33.229614
-28.825165
-24.993759
-22.304611
-20.921448
-20.437576
-20.006378
-18.628082
-15.603195
-10.733505
-4.279068
3.238922
11.267090
19.332550
27.100479
34.403915
41.326935
48.201950
55.479935
63.382568
71.448868
78.272095
81.857086
80.195007
72.161285
57.981613
39.320602
18.713486
-1.214722
-18.474625
-32.086487
-41.967316
-48.641037
-52.825424
-55.000443
-55.454681
-54.385162
-52.120117
-49.152084
-46.120758
-43.532959
-41.571381
-40.016632
-38.402466
-36.292953
-33.519852
-30.273712
-26.957870
-23.918365
-21.237427
-18.687622
-15.825912
-12.224243
-7.714752
-2.450867
3.133560
8.544785
13.430481
17.856400
22.278305
27.424057
34.019989
42.475159
52.661133
63.708298
74.042892
81.585098
84.243851
80.508728
69.972229
53.623962
33.587204
12.513611
-7.173203
-23.903137
-37.085327
-46.853882
-53.654999
-57.857849
-59.674225
-59.306961
-57.150177
-53.832397
-50.157898
-46.807251
-44.154083
-42.162933
-40.480591
-38.690826
-36.489624
-33.885803
-31.083282
-28.414948
-26.080322
-24.003693
-21.827454
-19.031036
-15.148499
-9.987457
-3.713379
3.223511
10.220947
16.742493
22.479584
27.403198
31.819458
36.287079
41.546295
48.295959
56.925507
67.187256
77.946960
87.214874
92.571564
91.884735
84.029510
69.356537
49.663513
27.633087
5.981750
-13.285583
-29.227325
-41.763397
-51.183350
-57.689575
-61.269257
-61.907410
-59.939667
-56.255707
-52.084839
-48.529480
-46.136169
-44.734070
-43.633392
-42.134033
-39.919250
-37.213745
-34.594086
-32.666199
-31.689880
-31.420654
-31.209625
-30.230957
-27.778564
-23.546326
-17.677216
-10.645966
-3.010864
4.739838
12.322021
19.554382
26.343719
32.711487
38.960938
45.818481
54.184662
64.593353
76.548004
88.166687
96.526459
98.631317
92.537292
78.175446
57.409393
33.333221
9.279358
-12.065277
-29.116516
-41.407806
-49.224365
-53.265625
-54.376572
-53.361893
-50.985245
-48.012222
-45.117264
-42.825531
-41.369278
-40.492599
-39.613968
-38.097397
-35.586746
-32.304062
-28.988007
-26.508850
-25.437561
-25.655792
-26.369553
-26.415146
-24.712234
-20.623535
-14.233627
-6.258057
2.206039
10.040863
16.500031
21.453613
25.381683
29.262283
34.226547
41.144211
50.291733
61.096283
72.071442
81.069626
85.737579
84.173111
75.516846
60.323883
40.411270
18.434860
-2.887772
-21.479904
-36.203323
-46.840912
-53.791794
-57.658096
-58.993332
-58.209717
-55.627808
-51.588287
-46.527237
-40.917923
-35.232483
-29.836441
-25.001556
-20.934692
-17.801605
-15.734146
-14.692322
-14.402084
-14.310059
-13.700699
-11.894440
-8.499344
-3.516556
2.673492
9.428497
16.117783
22.299438
27.825867
32.914230
38.119064
44.150467
51.593079
60.591904
70.414490
79.464554
85.487381
86.226654
80.235840
67.454620
49.282471
28.147827
6.817734
-12.380783
-27.986328
-39.409882
-46.811172
-50.687317
-51.745438
-50.685623
-48.146667
-44.694687
-40.850479
-37.078781
-33.724594
-30.988876
-28.859970
-27.201950
-25.845917
-24.778564
-24.182861
-24.250443
-24.846420
-25.380249
-24.902206
-22.506165
-17.825439
-11.182938
-3.447311
4.390198
11.657944
18.305389
24.708145
31.513489
39.416229
48.963608
60.368149
73.244553
86.340759
97.519623
104.107758
103.670288
94.820068
77.818878
54.642044
28.452057
2.791351
-19.360413
-36.186447
-47.293610
-53.426849
-55.949188
-56.257202
-55.367447
-53.823242
-51.800980
-49.351715
-46.513031
-43.338135
-39.833008
-36.017075
-32.017410
-28.206436
-25.147186
-23.421005
-23.241104
-24.258499
-25.592361
-26.113617
-24.846024
-21.201874
-15.168686
-7.274490
1.588333
10.388214
18.269379
24.886734
30.571442
36.254669
43.083023
51.832336
62.304016
73.168533
82.118195
86.557129
84.441879
74.982697
58.929703
38.356003
16.101654
-5.083496
-23.065384
-36.743195
-45.973236
-51.209732
-53.219452
-52.758636
-50.539459
-47.171875
-43.219635
-39.144470
-35.267181
-31.756912
-28.637634
-25.830597
-23.235977
-20.836304
-18.691498
-16.951752
-15.668015
-14.697205
-13.561920
-11.567581
-7.999863
-2.478287
4.773315
12.979523
21.073486
28.222748
34.219284
39.599594
45.458664
52.899734
62.443512
73.566177
84.575699
92.933441
95.955231
91.756668
79.910019
61.638031
39.391998
16.080887
-5.850204
-24.777908
-40.080261
-51.716614
-59.892807
-64.893890
-67.113358
-67.131454
-65.655746
-63.326447
-60.512695
-57.316742
-53.737915
-49.774567
-45.657028
-41.698883
-38.230148
-35.449036
-33.399399
-32.000351
-31.013107
-29.983994
-28.243912
-25.069183
-19.901642
-12.632950
-3.691513
6.013062
15.465408
23.871124
30.944214
36.997971
42.767258
49.305908
57.575104
68.120178
80.662125
93.906158
105.566940
112.834564
113.202194
105.130630
88.699005
65.569046
38.549896
11.025436
-13.977295
-34.376297
-49.391724
-59.417953
-65.641861
-69.342880
-71.482971
-72.442780
-72.195374
-70.658615
-67.901108
-64.290146
-60.235519
-56.063782
-51.895996
-47.690598
-43.463913
-39.361923
-35.656540
-32.618927
-30.389923
-28.838867
-27.562454
-25.818375
-22.795471
-17.904114
-11.051880
-2.915985
5.376633
12.601318
18.045975
21.830673
24.819778
28.220551
33.053055
39.949432
48.949997
59.685425
71.347183
82.607391
91.584198
96.046616
93.978714
84.286453
67.394028
45.296875
20.976303
-2.404251
-22.517761
-38.272064
-49.789948
-57.882339
-63.485153
-67.181335
-69.216431
-69.613205
-68.500122
-66.167709
-63.075729
-59.695282
-56.373062
-53.261276
-50.360870
-47.569077
-44.808411
-42.007217
-39.184052
-36.420349
-33.819885
-31.495834
-29.373581
-27.208572
-24.587250
-21.101669
-16.524399
-10.884491
-4.478317
2.320587
9.150543
15.807220
22.169449
28.215897
33.972580
39.685638
45.840805
53.108383
62.046753
72.730469
84.290558
94.876480
101.919189
102.860428
96.020355
81.234360
60.046295
35.300903
10.292496
-12.142555
-30.278481
-43.551254
-52.322906
-57.385193
-59.481400
-59.237724
-57.225906
-54.065544
-50.458496
-46.967186
-43.846207
-41.030472
-38.265488
-35.386047
-32.439255
-29.699913
-27.516960
-26.124878
-25.471275
-25.195480
-24.774841
-23.652657
-21.337288
-17.530220
-12.171089
-5.430908
2.233826
10.166130
17.686478
24.224380
29.581322
34.028313
38.298210
43.543835
50.824913
60.570030
72.062500
83.336166
91.580238
94.029396
88.932159
76.170105
57.363655
35.211857
12.744976
-7.518642
-23.990944
-36.078400
-43.936398
-48.137924
-49.492218
-48.796463
-46.796345
-44.109337
-41.266064
-38.631058
-36.399292
-34.409351
-32.253147
-29.461906
-25.777031
-21.441807
-17.173714
-13.842640
-12.081202
-11.903942
-12.659659
-13.272077
-12.729605
-10.444111
-6.404599
-1.079719
4.854589
10.736094
16.132839
20.899530
25.203264
29.501753
34.444382
40.639847
48.379730
57.423477
66.850601
75.125496
80.417862
81.036018
75.907272
64.958969
49.171448
30.393898
10.929951
-7.068756
-22.034424
-33.201191
-40.605713
-44.786682
-46.432297
-46.144505
-44.401211
-41.613270
-38.209469
-34.730675
-31.619171
-29.147598
-27.249691
-25.579250
-23.718880
-21.413502
-18.732002
-16.016106
-13.708801
-12.013710
-10.726868
-9.356972
-7.257622
-4.056664
0.216347
5.200394
10.365799
15.338013
20.017899
24.684364
29.844719
36.075912
43.718353
52.615433
61.977287
70.404541
76.146980
77.637337
73.955658
65.110435
52.019135
36.295677
19.679611
3.760933
-10.403023
-22.306549
-31.923698
-39.457222
-45.104584
-48.826912
-50.420464
-49.784355
-47.150398
-43.260841
-39.116608
-35.625214
-33.221001
-31.708176
-30.533211
-29.118790
-27.228088
-24.976868
-22.717194
-20.699356
-18.927002
-17.111954
-14.876343
-11.858330
-7.897331
-3.149368
1.991295
7.032257
11.548836
15.520050
19.178558
22.982346
27.278740
32.251862
37.862556
44.027771
50.634888
57.366074
63.571251
68.074760
69.457367
66.527161
58.821259
46.852432
31.989197
16.003792
0.564857
-13.127602
-24.427284
-33.164001
-39.462708
-43.629501
-46.011047
-46.806351
-46.168884
-44.253815
-41.351105
-37.957108
-34.689865
-32.046173
-30.186310
-28.908585
-27.759689
-26.353607
-24.556107
-22.491714
-20.466080
-18.723221
-17.283783
-15.954025
-14.350143
-12.066818
-8.843750
-4.649445
0.252090
5.346863
10.042206
13.967194
17.112213
19.948730
23.277893
27.888550
34.279709
42.417953
51.615601
60.615662
67.840424
71.715790
71.016327
65.234467
54.741058
40.702408
24.847275
9.042191
-5.104126
-16.642242
-25.304214
-31.351440
-35.314224
-37.714035
-38.935623
-39.230698
-38.810837
-37.964981
-37.001801
-36.157043
-35.505325
-34.921051
-34.140457
-32.964188
-31.380966
-29.621323
-28.028442
-26.785599
-25.844421
-24.841095
-23.307343
-20.840683
-17.325241
-12.909637
-7.932770
-2.839050
1.986679
6.243866
9.802429
12.750687
15.499878
18.586243
22.597656
28.012802
35.041428
43.532516
52.947922
62.276825
70.079453
74.679626
74.606552
69.145020
58.657074
44.536133
28.772842
13.231079
-0.799652
-12.716171
-22.431061
-29.980301
-35.265167
-38.175568
-38.723007
-37.201248
-34.210693
-30.455078
-26.618774
-23.111374
-20.139664
-17.684937
-15.651840
-14.009995
-12.796936
-12.135010
-12.080597
-12.406174
-12.596130
-12.060516
-10.344421
-7.345490
-3.375290
1.053314
5.433472
9.427979
12.971222
16.116501
19.102768
22.297592
26.223389
31.387421
38.105560
46.268738
55.196960
63.728500
70.437668
73.901672
72.956711
66.966904
55.993378
41.078018
24.001740
6.953690
-8.084320
-19.945312
-28.415146
-34.061722
-37.665146
-39.797089
-40.577103
-39.924088
-37.909027
-34.897217
-31.555496
-28.519531
-26.115585
-24.339325
-22.847534
-21.332901
-19.649185
-17.896439
-16.280289
-14.941483
-13.891541
-12.836853
-11.356094
-8.938339
-5.215897
-0.079727
6.255829
13.232544
20.125107
26.303421
31.481232
35.857193
40.113251
45.145569
51.663177
59.751038
68.613663
76.653275
81.956024
82.807251
78.239914
68.310455
53.993149
36.885422
18.810730
1.456406
-13.843948
-26.245300
-35.376892
-41.348328
-44.591278
-45.731369
-45.447220
-44.331299
-42.783249
-41.081192
-39.401474
-37.831604
-36.360825
-34.881195
-33.207413
-31.163940
-28.764160
-26.233749
-23.952988
-22.331390
-21.536591
-21.315247
-20.935379
-19.405411
-15.782944
-9.685303
-1.527161
7.608673
16.320419
23.569565
29.061020
33.306976
37.304062
42.076172
48.254700
55.926224
64.629715
73.373672
80.706970
84.825714
83.987869
77.020584
63.857269
45.771454
25.076141
4.468079
-13.804047
-28.352814
-38.843948
-45.700485
-49.726166
-51.735214
-52.399277
-52.198166
-51.409088
-50.284302
-49.001328
-47.738449
-46.598679
-45.490646
-44.190475
-42.451286
-40.186546
-37.567245
-35.060509
-33.066818
-31.742805
-30.826668
-29.745125
-27.907547
-24.930786
-20.659439
-15.178635
-8.682304
-1.425674
6.258400
13.896576
20.974106
27.089203
32.104897
36.253296
40.052887
44.240646
49.665199
57.006027
66.496094
77.699463
89.178513
98.680084
103.606606
101.824478
92.402908
76.020775
54.761612
31.383560
8.596985
-11.652901
-28.334297
-41.235481
-50.599503
-56.876366
-60.544312
-62.177132
-62.325310
-61.495949
-60.057121
-58.203110
-55.930553
-53.259068
-50.273106
-47.213097
-44.322346
-41.758110
-39.546169
-37.579460
-35.742348
-33.982632
-32.322384
-30.718540
-28.932861
-26.536865
-23.083927
-18.306435
-12.229053
-5.248951
2.085598
9.227081
15.752918
21.470551
26.408905
30.866898
35.423119
40.814842
47.724159
56.418758
66.538490
76.952682
85.948471
91.542076
91.929077
85.945862
73.415222
55.323475
33.777775
11.493891
-8.936771
-25.719667
-38.247196
-46.934006
-52.679592
-56.319664
-58.303677
-58.747593
-57.794979
-55.808456
-53.271637
-50.616432
-48.055298
-45.543991
-42.944088
-40.188583
-37.366550
-34.648937
-32.275509
-30.420826
-29.173712
-28.429672
-27.755629
-26.470690
-23.805237
-19.271797
-12.917605
-5.340765
2.537556
9.886923
16.271538
21.713139
26.545380
31.275738
36.492580
42.802204
50.719925
60.484077
71.570259
82.639145
91.556496
95.917007
93.823822
84.517540
68.665558
48.171738
25.736742
4.067205
-14.730265
-29.521427
-40.187321
-47.330750
-51.826084
-54.391335
-55.344116
-54.684822
-52.387405
-48.717712
-44.222904
-39.697857
-35.764915
-32.645748
-30.203075
-28.128208
-26.213799
-24.486500
-23.017494
-21.776085
-20.496910
-18.784454
-16.231651
-12.667000
-8.106766
-2.721725
3.182518
9.222431
14.991325
20.145504
24.767326
29.477608
35.333248
43.363029
54.077763
66.914612
80.236130
91.697662
98.773735
99.519615
92.919327
79.186188
59.883949
37.459480
14.676559
-6.081154
-23.315994
-36.700455
-46.629440
-53.876694
-59.042633
-62.344582
-63.755569
-63.215050
-60.756134
-56.621025
-51.224625
-45.111443
-38.958580
-33.425049
-28.953743
-25.667358
-23.425873
-21.969826
-21.019760
-20.384811
-19.655785
-18.520622
-16.480980
-12.977707
-7.737366
-0.876991
6.985588
15.155891
22.970154
30.220703
36.502075
41.768753
46.563995
51.890656
59.073326
68.842224
81.048119
93.876045
104.407257
108.389465
102.292633
84.704453
56.824677
22.130219
-15.321457
-51.640106
-84.189865
-110.623169
-129.697159
-139.988785
-140.239944
-130.471527
-112.751282
-92.240509
-75.062637
-66.656952
-61.016708
-51.410629
-32.941528
-5.858734
25.591522
56.516205
79.806946
93.674545
96.153854
85.505234
58.999527
14.123764
-47.875885
-122.486145
-194.313843
-244.057816
-255.489059
-224.836594
-162.434753
-88.255447
-21.832413
24.862831
50.068657
60.275307
64.005714
67.668976
73.483307
81.324966
89.912689
98.145241
104.671196
106.827568
101.279175
85.043625
57.661652
22.793228
-11.217361
-35.083405
-42.281059
-31.644699
-7.566063
22.935837
53.173119
79.105156
99.644066
115.515556
126.678284
131.694839
128.819351
117.118240
98.098892
75.784897
55.667854
42.833847
42.968430
58.400917
85.627869
115.971939
138.859558
146.466400
136.695984
111.809349
75.750854
32.903641
-14.156418
-65.900841
-120.123367
-175.617203
-231.733276
-288.284790
-345.326660
-402.225800
-456.607910
-504.336487
-539.726257
-556.839417
-552.570374
-528.200623
-489.634216
-445.448975
-403.442963
-367.696106
-338.043335
-311.510254
-284.614288
-256.098877
-227.008728
-199.521439
-175.301910
-154.371185
-134.775635
-114.607147
-93.304489
-71.742447
-51.823517
-35.010681
-21.519836
-10.210327
0.916077
14.167175
30.415314
48.555115
66.222290
80.956085
91.566528
98.560852
103.794128
109.578735
118.697144
132.043213
148.039734
163.872253
177.144409
187.015808
194.242859
200.623962
208.203430
221.509033
242.326172
268.185364
294.018494
315.132812
328.719543
333.783875
330.749390
321.085327
313.072998
311.699219
315.616577
319.743896
320.460205
317.449341
312.387573
307.321167
303.678589
311.735107
335.624756
369.525513
402.686523
427.784302
443.510376
452.274658
457.755371
463.817505
486.819885
535.116943
602.485046
672.980225
731.671997
769.691467
784.032593
776.592224
672.000488
454.520142
177.626099
-79.678650
-273.247253
-401.345032
-480.619202
-528.057312
-555.233093
-569.053589
-561.300598
-529.951538
-484.709656
-440.834503
-408.170074
-388.091492
-376.929443
-370.214325
-364.783325
-349.402130
-319.673431
-281.329407
-244.962982
-217.537872
-199.771622
-188.829529
-181.360245
-175.053650
-162.820007
-141.987946
-116.370560
-92.682007
-75.213753
-64.215775
-57.734062
-53.659187
-50.797493
-45.986061
-38.473198
-30.687710
-25.761463
-25.435516
-28.875504
-33.982841
-38.773987
-42.192310
-43.167778
-41.952435
-40.260742
-39.508339
-39.827225
-40.021049
-38.659096
-34.845650
-28.892530
-22.181734
-16.652939
-14.675041
-17.920547
-27.488537
-43.627731
-65.232437
-89.106308
-110.029274
-121.957626
-117.678780
-97.190170
-65.816193
-32.382088
-5.497669
9.788324
13.572199
9.968651
4.258034
0.198528
-1.659595
-2.473034
-3.693562
-5.826668
-8.142479
-9.274595
-8.173176
-4.544193
1.181555
7.642368
13.804020
18.988594
23.079376
26.414886
29.932693
34.588074
40.950302
49.316124
59.526569
71.662094
85.822205
101.691536
117.677032
130.613297
136.373993
131.215485
114.136459
87.490692
56.510361
27.063801
3.342953
-13.561771
-25.198349
-34.332314
-43.555599
-53.566811
-63.781391
-73.404655
-82.492874
-92.207764
-104.212524
-119.668648
-138.405762
-159.035690
-177.983597
-190.882706
-194.504013
-188.475677
-175.964615
-162.838104
-155.624268
-155.635529
-164.506622
-181.233521
-202.743347
-225.003250
-244.120010
-256.918304
-260.983887
-254.695679
-236.920547
-208.446030
-171.505280
-130.156647
-89.649643
-55.591522
-33.085159
-25.678238
-34.295288
-55.935699
-84.573395
-112.005157
-130.598114
-135.713531
-126.915100
-107.568970
-82.918365
-57.543915
-32.752197
-7.736206
19.570496
50.910034
86.885162
126.557556
167.027527
203.523926
229.920593
242.789856
239.766724
220.233276
185.924805
141.645203
94.297668
50.501160
14.603149
-11.801208
-23.452393
-17.176208
6.147888
41.100037
80.436829
117.696960
148.267090
169.889648
182.987427
199.008911
228.246704
273.892700
330.397339
388.529175
440.694336
482.829468
514.348206
537.549011
567.808472
617.789368
690.967529
780.810364
877.822510
975.343689
1069.610107
1157.218994
1163.411255
1045.075684
813.248657
528.308044
255.104065
31.441040
-132.563293
-243.511139
-315.294952
-362.623383
-383.512695
-378.450958
-352.607666
-317.549774
-285.839081
-265.528870
-259.359161
-266.398865
-283.740540
-299.465820
-302.424561
-291.940674
-276.081085
-264.801910
-263.728973
-273.375641
-290.958008
-312.288177
-327.516846
-329.304596
-319.895660
-307.438110
-300.399933
-302.682251
-313.494812
-329.559204
-347.168640
-360.591461
-366.205933
-369.066284
-377.408875
-398.080780
-432.983978
-480.257263
-537.263123
-602.328918
-673.153076
-716.337036
-705.780029
-631.565796
-506.567566
-356.358734
-205.954224
-73.342865
31.254395
105.445114
153.618057
179.647202
188.582138
185.389603
175.787918
164.173340
154.491547
149.044998
149.240219
155.641327
164.041763
169.882782
170.047470
165.511276
159.349487
154.625244
153.132751
155.993301
164.417389
173.921158
181.177200
184.190155
184.384537
183.852173
183.698822
183.358307
181.560760
177.392212
170.389069
160.570648
138.204132
100.181870
50.993774
-0.285660
-46.523621
-85.113914
-116.484581
-139.095795
-154.104889
-162.843750
-165.054199
-159.937469
-146.314697
-123.233009
-92.089767
-56.376404
-18.946396
14.149017
35.324173
40.822205
33.318268
21.461487
15.510315
22.834442
45.734802
86.489624
143.235397
210.453568
281.583618
350.051880
408.881470
450.207428
467.228210
429.490967
332.289734
200.906372
74.325150
-20.344894
-77.466553
-106.069855
-119.570068
-128.700409
-138.944595
-146.657684
-148.721176
-146.447525
-143.481155
-141.527557
-138.281448
-129.337753
-110.987144
-83.109642
-46.005875
-2.748459
38.126923
67.991028
82.316086
81.701538
69.530807
50.025208
26.773056
5.945587
-7.775024
-12.119263
-6.088547
10.764244
37.983536
72.778511
110.401161
137.875702
148.418259
140.393600
117.702171
88.747917
63.099411
47.635220
43.459126
47.247894
53.500275
59.062725
63.079559
66.166008
69.142120
71.778191
73.489525
70.355087
59.470680
39.684799
12.515141
-19.417480
-53.390869
-87.307770
-120.100838
-148.518555
-172.203857
-191.576294
-207.201080
-218.899231
-226.254150
-228.866791
-226.583923
-219.814514
-209.655396
-198.279877
-187.511627
-178.547424
-171.795929
-167.306610
-165.200943
-165.692612
-168.429230
-171.628967
-172.169769
-165.551971
-148.019608
-119.063835
-82.417557
-45.005577
-14.084240
5.830948
14.733765
16.197456
15.362015
16.731218
22.028147
30.791040
41.669773
53.766094
67.132080
82.394623
99.794403
117.806473
135.491791
151.231659
163.468506
171.300217
174.890793
175.250595
173.836426
171.984680
170.550964
170.000351
170.394684
172.022232
175.250534
179.854797
183.979980
183.911652
175.040314
154.108154
121.539627
81.793411
42.260399
10.270824
-9.669882
-17.410517
-16.464264
-11.599602
-6.605186
-3.040556
-0.865679
0.327396
0.253256
-2.153978
-8.357691
-19.422649
-35.505165
-55.732437
-78.161041
-100.583183
-120.121208
-135.478119
-145.996216
-151.989868
-154.461288
-154.745743
-154.187775
-153.979279
-155.310242
-158.512894
-162.435410
-163.793945
-158.159607
-141.644409
-113.433075
-77.279922
-39.190086
-6.479458
16.022526
27.820049
32.726292
36.313606
43.373455
55.912842
72.980347
91.681908
107.988953
118.330521
120.562057
114.673111
102.422104
87.905350
75.055466
65.831085
59.900528
54.698402
47.667610
38.047630
27.033382
16.651764
7.938351
-0.351017
-11.386356
-28.374920
-52.770279
-83.484711
-116.181473
-144.289688
-160.869629
-160.693741
-142.202637
-108.865280
-65.726624
-20.440681
19.281704
47.469398
61.090080
60.836212
51.372898
39.987488
34.057846
38.570942
52.614368
69.974091
82.273422
83.474800
72.077133
51.797623
28.921833
8.582439
-7.577642
-21.428419
-35.654625
-50.787930
-64.429932
-72.713120
-72.875221
-65.424454
-54.838211
-47.374184
-48.264557
-58.183968
-72.244003
-81.471672
-76.745369
-53.178215
-12.630974
36.753014
84.022842
119.531570
137.705704
137.101151
118.955917
85.935654
42.216640
-5.492077
-48.216576
-76.492355
-83.823059
-69.531570
-39.248596
-2.398354
32.024574
58.796139
77.426514
90.191490
99.711853
107.496407
114.115158
120.220421
127.178421
136.649261
149.462799
165.163818
181.383423
195.002899
203.725174
207.310806
207.892609
209.423004
216.712158
231.274002
254.728455
286.306915
322.131348
355.549988
378.781433
385.449463
372.902527
343.343018
302.857361
259.230499
218.373444
182.729736
151.367188
121.575653
90.567383
56.348053
17.549896
-27.190491
-79.182739
-139.294861
-207.280396
-281.324890
-358.017120
-433.163116
-502.764130
-564.128906
-616.528076
-661.099548
-700.353027
-737.398438
-774.331848
-810.451416
-841.285400
-859.414062
-857.056946
-829.509888
-777.453430
-706.382324
-625.222778
-543.136536
-466.607849
-398.186737
-337.369690
-282.810455
-234.142975
-192.282440
-156.478485
-125.699829
-99.040161
-76.233261
-57.548492
-43.618225
-35.396576
-34.087219
-40.303383
-49.110580
-55.137093
-54.858440
-47.474079
-33.584919
-13.846649
11.132080
40.433617
72.886124
114.269608
169.013596
237.114929
313.726501
392.393219
467.957611
537.018921
597.320923
647.497681
696.187439
751.091125
814.742126
883.815735
953.155518
1019.359802
1081.097656
1138.081299
1135.162354
1042.554932
869.525208
659.782715
459.397766
293.952301
168.916595
79.240448
16.527679
-28.361359
-55.564209
-67.703094
-72.750153
-81.907349
-102.833038
-135.118774
-171.870667
-204.645813
-228.469330
-236.032104
-225.555634
-201.321228
-171.179718
-142.092224
-117.789032
-99.824326
-88.502197
-86.433578
-91.091415
-99.409332
-109.467850
-121.199768
-134.970367
-150.844666
-168.745789
-187.228287
-206.381424
-223.970901
-237.503189
-244.956390
-245.337143
-238.560913
-225.407776
-207.774612
-188.688080
-171.878204
-159.104095
-150.393021
-144.207336
-138.161972
-130.036224
-118.741013
-104.768158
-90.235916
-78.044510
-70.022202
-66.620026
-67.053589
-69.926254
-73.667801
-76.185196
-74.280457
-63.930161
-42.082428
-9.017075
29.790970
64.426147
84.357178
83.144798
61.829529
28.345032
-6.611954
-34.863495
-53.820297
-65.550888
-72.996552
-76.172653
-71.499207
-54.581657
-24.557961
13.628120
50.625534
76.854240
87.737755
85.049324
75.514053
66.698784
63.501373
66.174965
71.661583
76.110832
76.917671
73.434860
66.156281
55.916809
43.473442
29.929993
16.838974
6.131248
-0.578743
-2.774498
-1.254463
2.070847
5.173912
6.601002
5.888893
3.253853
-0.748444
-5.564705
-10.821609
-16.090492
-20.897114
-24.650921
-26.893551
-27.435425
-26.460831
-24.559902
-22.493153
-20.937366
-20.059921
-19.549313
-18.759285
-17.273563
-15.295815
-13.890057
-14.347931
-17.413731
-22.581390
-27.905487
-30.874622
-29.389431
-22.691277
-11.586140
1.765194
14.728951
24.495300
28.540245
25.488661
15.434244
0.694271
-14.449556
-25.056999
-27.581495
-21.558575
-9.984791
1.910524
9.341951
10.083155
5.154971
-2.137606
-8.314392
-11.323491
-11.101974
-8.919586
-6.296857
-3.917509
-1.644560
0.932864
4.014636
7.142902
9.265820
9.135605
5.895502
-0.527414
-8.643250
-16.179922
-20.991184
-22.030582
-19.935020
-16.736076
-15.080357
-16.833614
-22.398331
-29.720638
-35.961048
-38.993126
-38.175900
-34.209854
-28.535347
-22.611584
-17.043915
-11.954063
-5.936928
2.116318
12.056633
22.375481
30.970886
35.685509
34.834618
28.272011
16.836548
4.164940
-5.655487
-9.368187
-5.144379
7.987595
31.171707
60.685081
95.368507
124.191193
140.534943
144.821213
142.725616
139.500275
137.667145
137.807068
139.336334
141.160110
140.144318
133.317780
117.378059
90.428833
53.715569
12.449486
-25.880852
-55.027328
-72.087463
-78.867165
-78.615417
-74.827492
-69.840485
-64.485321
-58.705894
-52.586990
-47.197029
-43.792297
-43.393440
-45.044579
-46.868835
-47.154503
-45.018478
-40.781582
-35.610676
-31.040154
-28.206352
-27.537479
-28.277424
-29.187019
-29.234978
-28.043900
-25.919304
-23.561897
-21.684780
-20.691845
-20.561867
-20.788322
-20.878250
-20.603386
-20.154938
-19.908169
-20.174706
-20.956356
-21.900330
-22.569298
-22.584743
-21.931973
-20.938293
-20.107449
-20.023582
-21.130932
-23.678925
-27.455547
-31.526402
-34.136967
-33.142021
-26.838707
-14.806709
1.430283
18.775146
33.733089
43.867432
48.779709
50.040100
50.076103
50.853294
52.904377
55.445217
57.180042
57.307552
55.997734
54.090729
52.354240
50.889977
49.148067
46.320282
41.748917
35.388424
27.728085
19.499413
11.463348
4.207024
-1.834118
-6.426910
-9.509815
-11.211361
-11.849358
-11.539505
-10.397377
-8.317677
-5.210182
-1.071461
3.798042
9.059559
14.211117
18.773689
22.279480
24.318298
25.074677
25.245129
26.029068
28.350336
32.007160
35.141792
34.946926
29.009689
16.969360
1.177814
-14.117189
-24.999805
-29.726450
-29.593102
-27.983295
-28.230490
-31.934368
-38.568779
-46.364388
-53.487301
-58.767651
-61.263786
-59.690704
-52.304283
-37.863380
-16.923042
7.381807
29.167171
42.945221
45.886467
38.945808
25.993034
11.742960
-0.277142
-8.638622
-13.731701
-16.599823
-17.930763
-17.895325
-16.525021
-14.034000
-10.892868
-7.542210
-4.425488
-1.753651
0.343651
1.864807
2.875847
3.563118
4.269039
5.556683
7.839386
11.120209
15.111351
18.918156
21.718433
23.025665
23.104881
22.659683
22.463810
22.902920
23.994129
25.419121
26.638527
27.031914
25.658905
20.810646
10.368614
-7.195145
-31.112694
-57.171585
-78.043175
-85.800331
-75.538208
-48.405495
-11.830757
23.262512
46.926086
54.012154
45.398834
26.291405
2.970543
-19.781891
-39.841125
-56.921745
-70.871315
-80.946083
-86.156860
-86.309319
-82.481850
-77.280716
-73.643684
-73.565567
-76.676987
-80.062775
-79.664085
-72.401466
-58.006096
-39.686012
-22.520187
-10.690155
-5.047707
-2.765221
0.804527
9.072960
22.054733
36.477646
47.947441
53.673225
53.939949
51.395672
49.105858
48.559715
49.098526
48.839081
46.307671
41.350040
35.363983
30.594189
28.804775
30.291664
33.888954
37.351463
38.536320
36.399036
31.268311
24.747410
18.808367
14.974413
13.817507
15.112988
18.356293
22.770439
27.089897
29.332161
27.028175
18.272123
2.995644
-16.303036
-35.234520
-49.177170
-55.214188
-53.265129
-45.690323
-35.848465
-26.423071
-18.610596
-12.377840
-7.396299
-3.701395
-1.805990
-2.068178
-4.303564
-7.624447
-10.775120
-12.657988
-12.506788
-10.441772
-7.359819
-4.703445
-3.809540
-5.265442
-8.515682
-11.819807
-13.147545
-11.043808
-5.404570
2.352489
9.913994
15.161690
17.147774
16.509453
14.879356
14.111235
15.222118
17.976486
20.935848
22.218195
20.603020
16.254940
11.158284
8.086451
9.247738
15.335451
25.140526
36.278053
46.577652
55.074745
62.030052
68.640091
75.329170
80.880775
82.724762
78.403198
66.771332
49.098068
28.397310
7.333595
-10.134563
-21.227421
-25.435986
-24.569668
-21.821838
-20.380756
-22.030014
-26.724888
-33.861309
-41.848595
-49.415440
-56.605061
-64.711319
-75.380829
-89.036194
-103.847122
-116.349792
-123.954987
-124.678497
-117.891335
-104.877724
-88.517883
-72.439552
-59.506668
-50.339176
-37.988014
-21.366182
-2.732201
16.282793
34.899193
51.228222
62.073250
64.009026
55.094872
35.785534
7.134313
-28.243843
-64.949852
-95.854485
-110.416283
-101.715866
-73.688957
-39.632874
-13.076979
-1.919769
-6.117092
-17.501091
-28.675690
-36.840286
-43.457767
-51.005882
-60.195518
-68.536575
-73.095467
-71.969276
-60.931839
-40.093788
-13.550423
13.321037
37.285454
58.565590
80.088585
106.312080
134.829269
169.872055
212.582275
259.221893
302.981445
337.216949
357.589264
363.365570
357.614105
319.801971
253.325592
178.258850
112.873749
62.126419
22.994713
-7.570183
-30.153484
-44.155594
-50.640411
-47.647076
-36.778484
-22.320488
-7.681227
5.405982
15.887869
22.154747
23.583887
19.437935
13.179840
7.295544
3.680067
5.795609
18.087257
43.579926
80.551575
122.421318
157.733063
176.414337
171.357574
141.417389
90.524895
33.887802
-12.447433
-47.304535
-74.841019
-100.716919
-128.323288
-159.266418
-195.038818
-224.636383
-244.247879
-254.701324
-259.912567
-263.296051
-267.647675
-274.267731
-283.117584
-293.241333
-303.082275
-312.924438
-323.924744
-337.335022
-352.065521
-365.493469
-374.138184
-374.298218
-362.857880
-337.656219
-298.935028
-247.843216
-185.817169
-113.283463
-32.331161
51.537552
129.587906
192.179810
231.869827
245.196213
234.067749
204.393311
165.443512
123.834007
80.809532
33.200546
-22.662590
-87.411453
-157.586700
-225.657684
-282.096252
-314.228088
-314.679779
-284.892578
-233.700119
-171.916214
-108.169296
-47.757492
7.024567
55.620819
104.449310
157.307480
212.322113
263.981506
308.597931
346.169952
378.333435
406.097443
428.916565
454.121368
486.452423
524.717468
563.860168
601.187378
638.599121
680.196899
728.860840
728.907959
648.689819
499.104736
320.959961
148.824249
-0.613586
-120.995544
-210.335815
-270.585114
-308.016724
-323.123383
-319.236328
-304.577789
-289.436554
-280.070801
-276.672882
-275.521149
-271.853271
-262.031189
-238.422607
-198.990051
-150.191254
-103.616425
-68.827301
-49.460846
-44.059967
-48.749039
-59.458435
-68.833191
-71.805313
-67.309036
-57.348328
-44.340881
-30.164780
-16.859390
-6.762100
-1.793442
-0.528839
-0.738205
-0.534256
1.038742
4.529373
9.914520
15.971252
20.170761
19.577103
12.867554
0.572006
-14.722916
-29.122879
-38.461212
-39.850922
-32.958923
-20.171356
-5.397415
7.565735
16.445267
21.149338
23.100296
24.090118
25.403671
27.272598
29.106323
30.169525
30.618378
30.552505
31.015442
33.145325
37.478134
43.803360
51.068649
57.809494
62.847351
65.791656
67.277679
68.839722
72.143982
78.203384
87.015976
97.471420
107.817184
116.570923
122.642349
125.499573
124.851845
120.899254
113.142555
102.124252
89.613434
77.933540
68.504639
60.251625
49.670021
32.386086
5.776764
-28.930916
-66.554153
-100.053070
-123.755478
-135.658035
-137.765991
-134.003937
-127.690613
-120.020599
-110.356033
-97.939720
-83.353622
-68.902321
-57.775429
-52.382027
-52.763794
-56.600189
-60.474464
-61.175003
-57.831810
-51.856720
-46.080341
-44.123779
-49.307938
-63.052753
-83.955612
-107.489799
-126.429428
-133.626022
-123.794807
-95.353516
-52.567924
-4.405159
39.287910
71.610344
90.970314
100.765244
105.779060
110.626602
118.968346
131.318878
144.961517
156.008606
160.267426
154.038467
135.032837
101.937576
56.751335
5.863823
-43.978165
-88.588181
-126.815674
-160.909073
-195.472046
-225.560989
-247.523407
-266.350159
-280.292267
-280.129639
-261.389954
-224.246460
-173.331131
-115.704216
-57.975151
-5.972183
37.577408
73.468552
102.057617
121.620926
130.587555
129.292358
120.980293
111.414124
105.013588
104.681778
112.143135
126.567513
145.012695
164.862244
184.506134
202.431564
216.816895
223.134506
216.932053
196.197144
161.681091
116.488991
65.744873
15.052284
-32.013641
-74.076401
-113.583305
-153.130981
-193.103302
-231.271713
-263.936157
-287.307495
-298.787750
-298.702087
-279.902710
-241.345551
-187.992920
-129.048538
-73.462669
-26.991219
6.293312
28.642700
41.073326
43.312607
32.833893
7.301403
-34.487293
-91.962296
-162.634354
-241.502182
-320.206543
-388.698944
-436.498535
-457.025391
-448.673462
-415.062103
-363.216095
-300.856903
-233.714172
-164.013306
-91.883209
-16.402229
61.774803
140.853882
218.773682
294.312531
367.232056
437.888733
506.627350
572.792053
635.371399
692.923401
745.350525
794.132751
841.307983
887.177185
928.307678
957.384705
965.070129
943.987305
891.490967
811.701050
714.205505
610.443359
509.743561
416.872864
332.228455
253.575912
178.553940
104.808609
31.616165
-40.352203
-109.600708
-174.817688
-235.433136
-291.668488
-344.359467
-394.568573
-446.069916
-502.163177
-563.769653
-628.126709
-689.238281
-739.545776
-771.914795
-781.787964
-768.698181
-740.354492
-706.732300
-675.848083
-650.664062
-629.356567
-607.820129
-581.831848
-548.876282
-509.100952
-470.572510
-442.713074
-432.337769
-441.002441
-465.375488
-499.437256
-535.680481
-566.608643
-555.260864
-479.975037
-342.648987
-169.029297
7.993042
165.360443
293.474854
392.089966
464.507568
514.940063
542.592773
547.583435
533.353516
507.051300
476.578125
446.543121
419.524170
393.800171
366.990082
333.736267
290.629272
237.929993
179.567474
120.734810
63.866806
8.722946
-46.945236
-105.076645
-167.784393
-233.532959
-296.530396
-348.814178
-376.440857
-373.353271
-341.159210
-287.657654
-222.888702
-156.500153
-94.059052
-36.466049
18.524025
73.534294
128.434006
181.547165
230.598160
274.019836
311.208008
342.492981
368.884705
391.716553
412.408936
431.672302
450.570465
469.979797
489.495544
506.816193
517.654663
516.767944
499.875214
465.436371
415.105927
353.975647
288.959198
225.973282
169.324936
121.331963
82.699867
52.886395
30.435287
12.966782
-2.063080
-16.940231
-34.695343
-56.757629
-82.476868
-109.482178
-134.997208
-157.351028
-176.460815
-193.298050
-209.015839
-226.548920
-247.222473
-269.865082
-291.318939
-308.175323
-318.543976
-322.931732
-324.123260
-326.568573
-338.345886
-365.171661
-407.244232
-457.975342
-506.083527
-540.068726
-552.617065
-543.204224
-497.593994
-414.551849
-304.585907
-186.385712
-77.160370
14.352051
87.281586
144.139587
187.835953
221.245102
244.410873
257.936188
262.510925
258.002014
242.965042
215.857376
177.220276
131.629456
86.779419
48.060760
18.765594
-0.398621
-10.215576
-11.878220
-6.596207
4.117111
17.813858
30.948944
37.987167
35.181046
22.398209
3.685547
-14.884079
-28.036682
-33.081924
-30.566605
-23.399261
-16.202789
-12.715622
-14.174286
-18.562225
-21.471199
-18.042442
-5.375053
15.830116
41.211617
64.235718
79.362923
84.354881
81.000000
73.560898
66.313644
61.505119
58.878227
56.715225
53.389893
48.468136
42.726902
37.474213
33.771812
31.910404
31.470539
31.454655
30.851349
28.960056
25.669292
21.472931
17.164469
13.662212
11.655083
11.473257
13.322697
17.546776
24.662518
34.608803
45.957390
55.465919
58.940006
53.012402
37.121723
14.463795
-8.977770
-26.822084
-34.998154
-33.328979
-25.005499
-14.658570
-5.965691
-0.488091
2.268426
3.561497
4.280981
4.523067
3.954287
2.509194
0.768749
-0.261178
0.210227
2.444219
5.838072
9.294184
11.804882
12.854421
12.544131
11.405510
10.053608
8.804893
7.529131
5.614790
2.285347
-2.981896
-10.110680
-18.200224
-25.718586
-30.992790
-32.747520
-30.763649
-25.909641
-19.777460
-13.805076
-8.914310
-5.173360
-2.081080
0.945513
4.257763
7.860263
11.437627
14.693495
17.674585
20.564390
23.616976
27.014233
30.593929
33.980549
36.699696
38.510174
38.878101
38.079010
36.826328
35.928234
35.920135
36.792061
38.077915
39.094334
39.278561
38.375366
36.392960
33.285408
28.851423
22.768028
14.826397
5.195084
-5.486565
-16.117088
-25.414074
-32.138802
-35.509125
-35.265186
-31.693951
-25.440495
-17.306019
-8.161728
1.194817
10.114403
18.241035
25.700356
33.198761
41.841782
52.674736
66.004593
80.961746
95.560394
107.413628
114.701378
116.944687
115.122635
111.095383
106.743820
103.232086
100.829773
99.149063
97.601440
95.689835
93.029404
89.269379
84.188797
77.961746
71.369766
65.489670
61.012939
57.273193
51.888870
41.182831
21.366638
-9.954498
-52.675568
-103.991974
-159.126343
-212.421143
-258.518311
-293.053925
-313.140076
-317.625702
-307.254761
-284.539551
-253.378815
-218.358185
-183.748535
-152.870239
-127.679443
-108.740265
-95.429108
-86.121979
-78.441071
-69.624878
-57.184357
-39.679565
-17.602386
6.387268
28.089539
43.081238
48.436218
43.732452
31.130035
14.507874
-1.910309
-14.680176
-21.765442
-22.440216
-17.141449
-7.461700
3.786682
12.687469
15.227570
9.052765
-4.898071
-21.855469
-34.740692
-37.206390
-26.705200
-5.822754
18.956604
40.553772
54.575592
61.005890
63.249603
65.539246
70.385376
77.644653
85.383942
91.665985
95.936615
98.957794
101.698334
104.080475
104.425812
100.157227
88.867889
69.532715
42.791626
10.880707
-23.127136
-56.113846
-85.443710
-109.332489
-126.707214
-137.011505
-140.033676
-136.142609
-126.533920
-113.362137
-99.363556
-86.969040
-77.458694
-70.397491
-64.106415
-56.796524
-47.674515
-37.265900
-26.882965
-17.489014
-9.094696
-0.931183
7.733261
16.784134
25.090958
31.046280
33.851273
34.180740
33.704208
33.906876
35.012268
35.971664
35.202103
31.704361
25.273315
16.962082
8.647659
2.090210
-1.861801
-3.277756
-2.526642
0.237328
4.933891
10.407715
14.950562
16.971031
15.464607
10.158394
1.672653
-8.307312
-17.538704
-24.180016
-28.722954
-33.008026
-39.001076
-47.755310
-59.179073
-72.102097
-84.273651
-92.951698
-90.175522
-72.786423
-45.426689
-18.074062
1.024725
8.793612
5.847357
-5.191633
-20.818604
-37.237934
-51.997246
-63.754604
-71.571625
-74.499374
-72.452179
-66.822510
-59.339996
-51.131485
-42.300278
-33.205582
-23.677643
-12.393974
0.295959
14.707153
30.474747
47.017761
63.669861
79.942749
94.439545
105.779602
113.347275
118.860611
124.069061
129.320602
134.195419
137.909988
140.469940
141.622238
141.410950
140.269226
141.022842
145.161316
151.912476
159.691086
167.351883
175.463348
184.305878
193.650467
202.254593
211.129883
219.047653
222.224121
216.746689
200.648804
175.633575
144.925720
112.418945
65.145172
5.050018
-55.207504
-103.453384
-133.547256
-154.402664
-172.342606
-190.370789
-208.674957
-226.572479
-239.196457
-243.784225
-240.828339
-232.866776
-223.490936
-216.143097
-214.257751
-214.689392
-212.472198
-196.223694
-157.027649
-94.523376
-18.307655
62.832108
141.472900
213.419434
280.309692
338.908112
391.957947
442.506042
491.440155
537.555481
578.079163
608.556274
623.160706
616.367065
584.384399
529.352844
456.857422
373.441101
285.538025
198.378754
114.859161
35.965942
-37.869476
-106.028229
-165.990738
-215.784012
-256.571503
-290.469971
-318.689606
-341.271698
-357.846436
-368.731018
-375.315674
-379.294800
-382.448212
-388.734558
-399.022522
-409.361633
-413.000305
-404.608368
-383.077606
-351.390961
-314.438873
-277.178345
-248.063171
-231.553894
-225.476807
-223.001801
-218.101105
-208.599945
-195.930511
-183.535095
-175.332520
-181.025970
-206.522919
-250.029755
-303.522461
-358.544373
-409.238007
-451.515381
-481.922302
-456.844116
-356.708130
-200.943939
-35.693695
101.179901
195.797363
251.806885
280.239105
292.564423
297.526855
294.020599
280.643799
260.482300
241.681747
231.177261
231.005249
238.686935
249.004776
256.437378
252.058731
231.647430
198.633286
162.074188
130.559937
108.158775
95.962654
92.175049
93.623520
94.016502
89.201149
79.234184
67.442680
57.047741
49.311539
43.853886
39.399761
34.649628
27.322071
16.291054
2.345310
-12.230984
-25.246466
-35.333710
-41.830635
-44.713951
-44.301853
-41.672249
-37.893692
-33.646717
-29.169973
-24.653147
-20.351925
-16.565716
-13.667487
-11.941790
-11.484142
-12.229576
-13.873178
-15.973778
-18.028942
-19.556934
-20.262703
-20.094727
-19.063587
-17.169611
-14.313648
-10.359394
-5.200005
1.045052
8.117821
15.455387
22.307091
27.859013
31.388023
32.465466
31.030342
27.434387
22.261803
16.261047
10.117474
4.461807
-0.151352
-3.262367
-4.541855
-3.876457
-1.500076
1.978745
5.808250
9.259293
11.968369
13.983589
15.705231
17.529961
19.608170
21.780479
23.662094
24.929428
25.558273
25.785187
26.049248
26.715172
28.069275
30.342979
33.807877
38.692764
45.021362
52.265121
59.336334
64.795746
67.334412
66.333481
62.018127
55.335312
47.574051
39.922241
33.161003
27.648438
23.391335
20.150513
17.529442
15.049423
12.272118
8.849815
4.785828
0.334152
-3.983345
-7.551476
-9.907700
-10.942272
-10.862068
-10.027073
-8.748512
-7.095612
-4.832481
-1.429157
3.664047
10.629993
18.957485
27.222664
33.420429
35.481583
32.036453
22.917070
9.693218
-4.854809
-17.731020
-26.904394
-31.928898
-33.746025
-34.002846
-34.102047
-34.990555
-36.419083
-37.493134
-37.545017
-36.813980
-36.418999
-37.685349
-41.609428
-48.305214
-57.498257
-67.823479
-77.397316
-84.755463
-89.478172
-92.214500
-93.914093
-95.426750
-97.139114
-99.589554
-102.578110
-105.362236
-107.216820
-107.525337
-105.695518
-100.746445
-91.685379
-75.209183
-53.926636
-35.288273
-26.075760
-28.064415
-38.673180
-54.144608
-71.112694
-87.406441
-102.014648
-115.109711
-126.326797
-135.065842
-141.001373
-144.234833
-145.827484
-146.878922
-147.836197
-148.322113
-147.461746
-143.367081
-133.298813
-118.828735
-101.372345
-82.838989
-64.723602
-47.434845
-30.261414
-12.126099
8.204041
31.345398
56.679108
83.054047
108.870056
133.124725
155.992462
178.740479
203.190704
231.625549
266.317291
308.670685
358.427673
412.090332
462.799866
501.554749
519.895508
513.038452
482.145905
433.956085
378.208710
324.138916
277.269928
238.799713
207.065857
179.871063
156.192688
136.345734
120.748932
108.675812
98.011505
85.943268
70.477692
51.473450
30.734222
11.127930
-4.813019
-16.044098
-23.137512
-27.732239
-31.648743
-36.086914
-41.472076
-47.641235
-54.274506
-61.196259
-68.538513
-76.467712
-84.990555
-93.794312
-102.228821
-109.427292
-114.506393
-116.886139
-116.457138
-113.766945
-109.744789
-105.527168
-101.964981
-99.406174
-97.646217
-96.069290
-94.033257
-91.082504
-87.146637
-82.394714
-77.191002
-71.992889
-67.233101
-63.256306
-60.254139
-58.167950
-56.632324
-55.114349
-52.959351
-49.693016
-45.196938
-39.638237
-33.542557
-27.578171
-22.469498
-18.810966
-17.046944
-17.308052
-19.336380
-22.580261
-26.236389
-29.572464
-32.030823
-33.436554
-33.871384
-33.643387
-33.073822
-32.301956
-31.359009
-30.131683
-28.565887
-26.693802
-24.646164
-22.588257
-20.730042
-19.106171
-17.572662
-15.872955
-13.653473
-10.769012
-7.367935
-3.870560
-0.792908
1.546356
3.150864
4.397766
5.770218
7.664612
10.118011
12.784637
15.187927
16.877625
17.596252
17.222122
15.673767
12.896088
8.960205
4.154465
-0.988022
-5.788742
-9.695267
-12.440674
-14.100037
-14.949860
-15.318741
-15.395126
-15.345230
-15.274765
-15.334656
-15.654785
-16.300446
-17.158447
-17.979736
-18.443756
-18.295746
-17.447510
-15.941437
-13.913055
-11.588470
-9.270691
-7.215851
-5.665253
-4.694580
-4.232391
-4.018707
-3.732330
-3.020081
-1.573853
0.765411
3.910767
7.445709
10.684265
12.811737
13.181152
11.567474
8.254852
3.952423
-0.466034
-4.260010
-7.105225
-8.969025
-10.002563
-10.316986
-9.937866
-8.902191
-7.372955
-5.661346
-4.127594
-3.077850
-2.576691
-2.484741
-2.482910
-2.289154
-1.750946
-0.888763
0.104492
1.049255
1.757721
2.234924
2.583923
3.081177
4.083160
5.849640
8.464020
11.703796
15.101532
18.079834
20.058136
20.624969
19.533142
16.823212
12.729248
7.672577
2.128143
-3.434265
-8.605988
-13.021362
-16.364655
-18.379944
-18.933350
-18.122040
-16.227661
-13.826904
-11.508789
-9.731445
-8.723816
-8.398895
-8.488281
-8.605225
-8.525391
-8.077362
-7.305420
-6.445526
-5.738922
-5.435516
-5.593597
-6.010590
-6.295593
-5.978027
-4.657593
-2.139069
1.413574
5.559692
9.541595
12.551270
13.939026
13.393005
11.019684
7.337219
3.056366
-1.153900
-4.735535
-7.453613
-9.201691
-10.001160
-9.958862
-9.204498
-7.927734
-6.396454
-4.961090
-3.909058
-3.539368
-3.980164
-5.115692
-6.662292
-8.186493
-9.287720
-9.793640
-9.817047
-9.630432
-9.528137
-9.665619
-9.894470
-9.885071
-9.188660
-7.483887
-4.694885
-1.056946
2.978241
6.828857
9.846161
11.536774
11.508118
9.679962
6.290649
1.886139
-2.822540
-7.086151
-10.386322
-12.532166
-13.636353
-14.016296
-13.978851
-13.695892
-13.152496
-12.287811
-11.091827
-9.753967
-8.574188
-7.814178
-7.606110
-7.836517
-8.187561
-8.341492
-8.083832
-7.400665
-6.455963
-5.488464
-4.565521
-3.630371
-2.521515
-1.035919
0.859467
3.062500
5.437805
7.862122
10.271393
12.629883
14.712189
16.072235
16.191284
14.642975
11.410309
6.956512
2.090271
-2.427063
-6.089081
-8.790588
-10.656006
-11.724335
-11.863129
-10.847870
-8.622711
-5.539459
-2.291473
0.317383
1.728027
1.831329
1.015747
-0.176483
-1.228271
-1.869629
-2.106934
-2.019623
-1.631775
-0.956390
-0.044678
0.997986
1.923492
2.498016
2.648224
2.513062
2.487762
3.072968
4.602081
7.035034
9.955475
12.603210
14.175720
14.125366
12.281158
8.886505
4.440094
-0.499084
-5.399628
-9.831299
-13.412140
-15.851257
-16.939331
-16.683716
-15.271576
-13.098450
-10.590820
-8.121887
-5.921631
-4.172546
-2.984650
-2.445679
-2.577057
-3.201324
-3.951691
-4.352890
-4.055481
-2.974060
-1.418045
0.130722
1.221313
1.646088
1.546951
1.324738
1.460388
2.209808
3.629639
5.548172
7.758698
10.048767
12.210983
13.927597
14.730179
14.164261
11.908829
8.067734
3.227264
-1.729065
-5.929886
-8.870605
-10.469376
-11.003021
-10.837616
-10.263535
-9.421341
-8.336502
-7.064392
-5.663773
-4.258987
-2.887833
-1.599396
-0.417236
0.603745
1.476288
2.267883
3.097244
4.119385
5.330460
6.649384
7.879456
8.923889
9.834793
10.839005
12.220840
14.101395
16.476349
19.173737
21.987289
24.727066
27.165512
29.043274
30.008377
29.738770
28.085648
25.148666
21.320999
17.142700
13.178192
9.864685
7.449997
5.980392
5.347961
5.352707
5.667465
5.924942
5.770981
4.991547
3.572540
1.670578
-0.439499
-2.541458
-4.539825
-6.496613
-8.543900
-10.813934
-13.275925
-15.704712
-17.737991
-18.966934
-19.052689
-17.790878
-15.082413
-11.004364
-5.819382
0.013962
5.926392
11.246567
15.351913
17.747620
18.072876
16.281357
12.505447
7.156830
0.838654
-5.650558
-11.561691
-16.247452
-19.391632
-20.982742
-21.156540
-20.096786
-17.961426
-14.916443
-11.176773
-7.138153
-3.224213
0.195267
2.897827
4.862701
6.182556
6.950638
7.188522
6.881897
6.085281
5.040421
4.139664
3.798813
4.299942
5.616028
7.476837
9.531296
11.548508
13.586914
15.884079
18.702835
22.016113
25.462524
28.269958
29.662460
29.147964
26.772644
23.068970
18.847946
14.899979
11.679962
9.403076
8.022964
7.521317
7.917511
9.229996
11.245087
13.456512
15.146561
15.619553
14.588867
12.375076
9.846344
8.053146
7.729889
8.992981
11.325836
13.794373
15.494003
15.815948
14.581543
11.926086
8.170746
3.702026
-0.904358
-4.980194
-7.779480
-8.706146
-7.556549
-4.617798
-0.629852
3.536499
7.018433
9.287109
10.177979
9.841003
8.707520
7.308289
6.120605
5.462982
5.465332
6.068634
7.191376
8.834229
11.016876
13.783173
17.023315
20.441864
23.697479
26.532684
28.958252
31.237122
33.760529
36.695526
39.913269
42.852325
44.809784
45.128113
43.459564
39.958496
35.200928
30.073090
25.252014
21.266815
18.323669
16.242340
14.496338
12.306335
9.036499
4.362274
-1.548523
-8.369629
-15.411865
-21.923737
-27.334808
-31.556427
-34.988312
-38.325562
-42.217255
-46.914398
-52.647034
-59.124359
-65.559021
-71.074188
-75.185394
-77.951324
-79.810028
-81.329742
-83.075928
-86.614258
-92.611023
-99.854004
-105.527222
-106.473694
-100.425964
-86.825012
-67.355042
-45.725586
-29.019470
-22.572296
-27.254395
-39.801208
-55.661163
-71.294525
-85.059235
-96.973083
-107.867889
-121.963562
-140.683197
-160.662750
-175.972809
-182.709686
-180.901367
-173.603455
-164.701904
-157.468750
-158.516815
-170.819641
-191.813599
-215.652069
-238.035858
-257.377319
-273.450714
-285.453308
-261.368134
-188.145569
-81.912415
24.173584
106.390060
158.227493
184.263931
192.699463
191.829681
187.484192
177.702438
160.545349
137.684570
114.098610
93.690872
78.566734
69.622780
67.368919
71.180115
75.940033
77.879227
77.256248
77.453659
81.026466
89.817108
99.814728
109.794128
119.403076
126.237648
128.614044
126.093300
123.543602
116.968544
102.184486
76.888367
42.490555
3.514282
-34.774292
-66.796707
-88.001556
-95.928406
-91.053940
-77.115799
-57.055145
-32.974167
-6.739120
19.712646
44.751785
67.431641
87.599731
105.210770
121.415009
137.840439
156.210526
177.446671
201.670120
228.289642
256.175659
283.928925
309.758362
332.376434
350.690063
363.475098
369.109497
365.943329
352.906860
330.237244
299.852570
264.917358
229.352051
196.626038
168.790497
146.048920
127.197853
110.336136
93.505623
75.128136
53.920170
29.191835
0.982937
-29.642647
-60.536503
-88.732132
-111.107162
-125.294167
-130.384888
-127.205963
-118.066216
-106.008942
-94.018982
-84.440842
-78.619034
-76.842896
-78.596268
-82.821274
-88.269012
-93.692810
-98.041687
-100.521790
-100.715973
-98.566711
-94.425049
-88.954590
-82.982361
-77.316589
-72.576447
-69.040588
-66.664154
-65.188721
-64.232239
-63.412903
-62.434082
-60.996796
-58.854126
-55.931396
-52.375427
-48.643860
-45.492798
-43.712463
-43.939087
-46.428528
-50.966431
-56.918945
-63.389648
-69.432434
-74.212769
-77.186218
-78.121094
-77.041382
-74.196228
-69.902344
-64.536011
-58.554871
-52.510864
-46.926025
-42.195496
-38.380005
-35.175720
-32.148132
-29.005798
-25.852417
-23.077515
-21.102966
-19.977295
-19.302917
-18.344421
-16.431641
-13.140686
-8.372864
-2.269836
4.971863
13.053955
21.397217
28.996338
34.487183
36.441406
33.911499
26.875366
16.288086
3.880127
-8.397949
-19.011047
-27.128052
-32.769897
-36.539368
-39.195007
-41.245728
-42.843872
-43.863953
-44.179626
-43.930908
-43.494202
-43.386292
-43.903564
-44.999207
-46.344421
-47.548523
-48.469543
-49.341553
-50.632629
-52.712219
-55.570374
-58.701416
-61.268677
-62.651672
-62.736816
-62.027649
-61.370972
-61.616211
-63.122131
-65.821777
-69.318115
-73.284119
-77.885254
-83.768005
-91.802734
-102.737366
-116.882568
-133.993347
-153.546326
-174.780334
-196.587585
-217.200439
-234.082336
-244.214294
-245.088257
-235.730652
-217.241577
-192.572815
-165.332947
-138.341492
-112.668335
-87.646484
-61.895325
-34.702148
-6.992554
18.611511
38.665833
50.124786
51.444000
42.793640
25.802612
2.724274
-24.236359
-53.211060
-82.426392
-109.875946
-132.913971
-148.483032
-153.835983
-147.409332
-129.481155
-102.198273
-68.925919
-33.227020
1.965866
34.889465
64.920967
92.112328
116.725845
138.750259
157.826096
173.345810
184.867035
192.332535
196.127686
196.975464
195.564178
192.390564
187.740875
181.771484
174.657242
166.662994
158.030411
148.933197
139.466934
129.664917
119.719513
109.931091
100.542175
91.663879
83.209229
75.048370
67.300568
60.454407
55.174683
51.971588
50.809113
50.975525
51.271118
50.398346
47.441498
42.054962
34.636505
26.141632
17.844666
11.073456
6.903107
5.995789
8.545105
14.310852
22.718506
32.940308
43.897125
54.296875
62.841125
68.543060
71.139435
71.313080
70.614532
70.993042
74.025726
80.383179
89.588928
100.299774
111.063263
120.937469
129.889984
138.702393
148.393158
159.670013
172.539642
186.313629
200.007629
212.621368
223.336853
231.511871
236.443756
237.381104
233.658844
224.994232
211.567139
194.017609
173.111298
149.568085
124.161621
97.920807
72.246521
48.685852
28.344391
11.242798
-3.731323
-18.361542
-34.232452
-51.764252
-70.013474
-87.158386
-101.638779
-113.003815
-122.087509
-130.300308
-138.766006
-147.517090
-155.411682
-160.742966
-162.217438
-159.911942
-155.343140
-150.758942
-147.985596
-147.601883
-148.709412
-149.510300
-148.440933
-145.091049
-140.979279
-139.073883
-142.483139
-153.018265
-170.488861
-192.553467
-215.456207
-235.266174
-248.561340
-254.303375
-253.782318
-249.262665
-243.142990
-237.649918
-234.598495
-234.869781
-237.565155
-238.096207
-230.181122
-206.725983
-161.497757
-92.496948
-5.111404
87.966438
170.714020
229.754913
260.726196
266.324921
254.989349
238.697357
229.143127
234.008057
255.490311
291.117828
335.014557
380.888397
418.371826
435.617920
424.080933
381.215454
310.406830
219.796005
120.794991
14.645302
-78.934067
-137.820602
-156.139832
-146.361511
-126.641785
-110.275742
-102.479408
-101.897118
-104.243210
-103.991959
-100.877426
-98.441574
-99.202759
-102.491997
-105.391060
-104.897369
-98.165039
-83.901848
-61.564827
-35.020191
-11.339771
3.184910
5.183567
-5.158524
-24.402412
-46.818657
-66.213043
-76.829269
-76.815483
-69.708504
-59.601288
-49.044174
-38.622437
-28.073463
-17.688702
-8.140450
-0.049786
5.382286
7.232121
6.158924
4.068607
3.015385
4.155106
7.293171
11.250389
14.682220
16.470604
16.219364
14.628094
12.899586
11.861694
11.730919
12.257458
13.128235
14.073460
14.907646
15.423031
15.643188
15.720795
15.825802
16.158337
16.825638
17.813263
19.029228
20.657871
23.454437
28.828995
38.234001
52.016682
68.889145
86.023315
99.767349
106.866089
105.526306
95.971962
80.253586
61.377323
41.825733
23.395781
7.444769
-4.870792
-12.564875
-14.913492
-11.761196
-3.862278
6.895750
16.747797
21.868120
20.064655
11.729145
-0.723870
-13.839589
-24.214483
-29.464359
-28.776695
-24.355490
-19.364767
-16.130272
-15.386885
-17.062660
-20.722776
-25.558748
-30.503023
-34.662636
-39.729851
-48.226219
-61.844784
-81.036125
-105.323593
-133.437424
-162.807434
-189.477737
-197.449173
-175.042511
-123.121277
-54.858868
13.636738
70.282913
108.121735
125.340775
125.049515
113.711990
97.110977
80.866898
66.054039
52.044621
37.217495
19.601547
-2.028107
-27.718733
-56.547844
-88.405327
-122.679710
-148.608795
-156.270035
-141.675507
-109.363541
-69.436592
-32.195137
-4.325981
11.573766
17.093517
16.019306
11.234703
4.196121
-4.591032
-14.172042
-22.583897
-27.576166
-28.158863
-24.529644
-18.163189
-11.827230
-8.148973
-8.381611
-12.008110
-17.132179
-21.570538
-23.980431
-23.568844
-20.804043
-17.391510
-15.163593
-15.205631
-17.388733
-20.510117
-22.860054
-23.064484
-19.830162
-13.142334
-4.282684
5.092941
13.760811
21.504364
29.507057
40.461403
52.745789
66.999489
84.088188
104.723625
129.079437
156.193298
183.292358
205.851349
218.531067
216.951981
200.260818
170.765640
133.429871
93.907211
56.750397
24.314865
-3.020309
-25.913330
-45.227432
-61.134155
-74.190735
-85.642242
-97.355423
-111.045853
-127.458481
-145.871857
-164.377640
-180.735947
-192.870850
-199.944702
-202.336990
-201.324493
-198.469330
-195.282166
-192.778946
-191.192184
-189.799927
-186.661758
-179.233047
-165.004395
-142.481766
-111.828537
-75.050018
-35.338013
3.863892
39.688690
70.338318
94.761719
112.309906
122.566681
125.372894
121.282318
111.707031
98.764404
84.674530
71.101898
58.750641
47.535889
37.088776
27.355682
18.890503
12.743835
9.949402
11.087830
16.022614
23.989319
33.945312
44.838593
55.815308
66.210663
75.505402
83.331482
89.559143
94.450989
98.614319
102.828583
107.685242
113.277863
119.188995
124.546173
128.508148
130.505829
130.503479
128.879700
126.249359
123.264709
120.430084
117.997101
116.027252
114.364258
112.692200
110.633148
107.806854
103.989960
99.173615
93.556427
87.405823
80.904510
74.070251
66.731598
58.692596
49.930054
40.692413
31.392090
22.454651
14.072662
6.164581
-1.500061
-9.104828
-16.519958
-23.231720
-28.696625
-32.621002
-35.260956
-37.355469
-39.795044
-43.256775
-47.871033
-53.284821
-58.939697
-64.460968
-69.656921
-74.498352
-78.878784
-82.490021
-84.843842
-85.556976
-84.525085
-82.046051
-78.791595
-75.501144
-72.784149
-70.986633
-70.159134
-70.007645
-70.161819
-70.232361
-69.903931
-69.069748
-67.631210
-65.607834
-63.067886
-60.092804
-56.671249
-52.740677
-48.126907
-42.546005
-35.727127
-27.492966
-18.003021
-7.834579
2.146698
11.031052
18.049438
22.881775
25.721466
27.138687
27.932434
28.758072
30.065353
31.999924
34.521194
37.509460
40.873230
44.644760
48.792328
53.213455
57.608734
61.596390
64.869675
67.324921
69.168625
70.829208
72.825958
75.443405
78.720108
82.377579
85.965866
89.066208
91.455338
93.136337
94.287231
95.172195
96.030571
97.089371
98.490723
100.154297
101.607567
101.923523
99.966675
94.710815
85.842880
73.907021
60.235031
46.454102
33.847618
23.062515
14.103489
6.620331
0.260210
-5.173355
-9.795349
-13.854362
-17.817795
-22.359749
-28.016342
-34.963676
-42.884666
-51.116844
-58.844131
-65.421432
-70.570068
-74.353653
-77.028183
-78.885345
-80.039917
-80.466721
-79.992554
-78.394913
-75.470139
-71.109604
-65.347198
-58.418915
-50.875458
-43.596191
-37.820221
-34.860962
-35.841553
-41.349274
-51.074280
-63.842468
-77.900299
-91.455231
-103.147217
-112.277771
-118.667023
-122.419373
-123.669037
-122.460968
-118.875763
-113.188202
-105.979370
-97.971436
-89.886475
-82.275848
-75.456024
-69.562256
-64.564423
-60.277710
-56.408142
-52.606934
-48.549988
-44.029968
-38.944244
-33.207886
-26.718628
-19.311554
-10.921387
-1.638275
8.265076
18.382935
28.256042
37.446320
45.557343
52.262054
57.291656
60.544006
62.148651
62.480438
62.054779
61.323029
60.622955
60.170654
60.180023
60.893097
62.526459
65.113037
68.371307
71.849609
75.040985
77.582031
79.351562
80.441772
81.007751
81.229919
81.231018
81.134186
81.078583
81.173065
81.431244
81.763489
81.998016
81.935150
81.490479
80.668854
79.546814
78.209869
76.652985
74.740265
72.217438
68.598938
63.301910
55.693329
45.199585
31.448029
14.511627
-5.062683
-26.243713
-47.581696
-67.576355
-84.983490
-98.994415
-109.362579
-116.277374
-120.076569
-121.162506
-119.975525
-117.073029
-113.292969
-109.677490
-107.266510
-106.811279
-108.488464
-111.841705
-115.973938
-119.895081
-122.778198
-124.221130
-124.201050
-122.925354
-120.661621
-117.480774
-113.269348
-107.844299
-101.111328
-93.150146
-84.260864
-74.767029
-64.758118
-54.155212
-42.842987
-30.991943
-19.364014
-9.216522
-1.920135
1.564667
1.195068
-2.070312
-6.640411
-10.780579
-13.133209
-12.960388
-10.164185
-5.081573
1.671478
9.427734
17.596344
25.693604
33.420013
40.568451
46.968353
52.425598
56.714050
59.636810
61.122559
61.374786
60.796112
59.965820
59.440002
59.615723
60.599243
62.258087
64.328888
66.579742
68.954346
71.402130
73.884277
76.170532
77.895447
78.753784
78.575439
77.409973
75.272064
71.972565
66.834961
58.867310
47.132080
31.243835
11.735321
-9.990936
-31.934265
-52.053864
-68.636261
-80.566681
-87.304199
-88.838196
-85.694183
-78.718109
-69.028259
-57.812744
-46.114410
-34.774078
-24.489838
-15.692078
-8.716858
-3.646088
-0.321411
1.481537
1.950562
1.068542
-1.379761
-5.617615
-11.562531
-18.600464
-25.658234
-31.408569
-34.685913
-34.787109
-31.632629
-25.607178
-17.354248
-7.610474
3.018677
13.968597
24.637878
34.243408
41.900330
46.774109
48.301208
46.463715
41.698639
34.704498
26.155640
16.601074
6.372253
-4.061340
-14.007324
-22.477631
-28.370850
-30.915771
-29.902191
-25.791199
-19.484772
-12.053375
-4.363647
3.057404
10.048981
16.663727
22.973114
29.027710
34.700500
39.786957
43.997864
47.025757
48.554230
48.339508
46.296783
42.593811
37.738251
32.524017
27.928680
24.883942
24.091339
25.707916
29.224823
33.528809
37.064789
38.267303
36.028015
30.114990
21.300568
11.095459
1.129517
-7.452026
-14.336700
-19.997864
-25.279755
-30.853729
-36.928619
-43.173401
-48.982849
-53.677917
-56.684753
-57.578827
-56.156555
-52.490021
-46.882538
-39.873535
-32.042664
-23.829437
-15.357025
-6.583160
2.537384
11.852448
21.006195
29.522369
36.843201
42.479279
45.958221
46.867432
44.904510
40.070190
32.600983
22.959778
11.640472
-1.009033
-14.699158
-29.083923
-43.597076
-57.338440
-69.176971
-77.995270
-83.048431
-84.035034
-81.205109
-75.105804
-66.440826
-55.894287
-43.992126
-31.238525
-18.243011
-5.874420
4.819977
12.797546
17.268890
17.973343
15.222153
9.809662
2.831161
-4.537949
-11.127411
-15.867935
-17.945633
-16.817764
-12.412521
-5.034531
4.640335
15.727219
27.428848
39.129349
50.522995
61.548569
72.321793
82.865860
92.861252
101.488327
107.428223
109.216385
105.599960
95.962753
80.536087
60.366379
37.078796
12.592361
-11.153915
-32.443344
-49.833099
-62.279388
-69.177536
-70.472794
-66.604111
-58.570694
-47.784851
-35.757080
-23.888763
-13.063660
-3.649704
4.468857
11.571823
17.886261
23.457260
28.137985
31.749832
34.082169
34.854187
33.595749
29.734604
22.860245
13.116440
1.508682
-10.151154
-19.574554
-24.639832
-24.029785
-17.683258
-6.779037
6.545273
19.893600
31.188416
39.241257
43.983658
46.226624
47.286270
48.439087
50.493912
53.649200
57.465729
61.053528
63.167862
62.494888
57.773010
48.217377
33.813599
15.439423
-5.213745
-26.032776
-44.871643
-59.995880
-70.245056
-75.090271
-74.536682
-68.898499
-58.796082
-44.993958
-28.380066
-9.923370
9.316559
28.234619
45.719086
60.936768
73.518494
83.709900
92.246979
99.980377
107.297546
113.746033
117.916595
117.793671
111.380463
97.436157
76.002167
48.576019
17.849304
-12.854309
-40.300537
-61.956970
-76.345398
-83.218079
-83.308258
-78.123901
-69.560486
-59.607666
-50.178680
-42.746094
-38.299561
-37.113861
-38.846130
-42.712097
-47.839264
-53.505524
-59.337158
-65.328918
-71.626770
-78.392578
-85.523834
-92.549286
-98.593475
-102.598633
-103.569763
-100.784271
-94.005615
-83.322083
-69.092621
-51.807220
-32.154114
-11.141815
9.758942
28.747681
44.105530
54.705017
60.507660
62.379395
61.748199
59.976288
57.837006
55.426483
52.366974
48.182587
42.620636
35.787750
27.956543
19.450836
10.499878
1.225647
-8.130005
-17.040222
-24.624481
-29.845917
-31.729248
-29.762909
-24.042358
-15.274200
-4.579163
6.882538
18.139282
28.564514
37.773895
45.572388
51.757446
56.017548
57.912140
56.905426
52.683350
45.246155
34.913635
22.158936
7.293579
-9.702393
-29.056946
-50.768127
-74.086609
-97.319275
-118.029236
-133.652344
-142.230042
-142.914185
-136.057251
-122.896057
-105.076111
-84.439026
-62.492981
-40.335144
-18.647766
1.963196
20.871094
37.423401
50.980408
61.079590
67.268921
69.460083
67.942688
63.272522
55.988464
46.616577
35.782440
24.263855
12.931458
2.148193
-7.663239
-15.714294
-20.881531
-22.119080
-18.675751
-10.312469
2.536377
18.744690
35.277832
49.314270
59.459076
65.684784
68.303223
67.625366
63.951660
57.785431
49.760651
37.671082
20.164307
-1.639801
-24.597351
-45.618805
-62.542664
-74.023224
-79.476013
-79.430817
-80.524109
-89.098999
-107.666260
-134.502106
-166.096710
-198.291504
-226.536041
-246.600189
-255.711456
-259.521088
-264.269684
-272.717834
-284.391052
-299.195648
-318.436554
-343.711853
-375.266937
-373.993256
-319.037384
-221.123871
-111.907837
-16.040588
57.687347
110.374207
145.925598
168.465027
181.725784
182.833191
170.042343
146.386047
118.362129
91.275871
68.024361
48.692417
31.491581
14.034731
-10.243934
-44.521080
-85.033249
-122.264107
-146.181000
-149.433395
-130.690369
-94.443726
-48.945694
-5.831299
27.166565
49.754395
68.527588
84.272537
99.311005
114.242920
128.134857
139.469727
145.829041
146.359589
142.337830
136.026398
129.014526
122.786896
117.388000
112.420929
107.630310
102.710724
97.956848
94.223175
92.401062
92.788330
96.145081
102.961670
113.845642
129.015869
147.420166
165.799988
178.701782
179.995117
165.280884
134.737244
92.931335
47.525818
6.427002
-24.720520
-43.799500
-51.881653
-51.729309
-46.517334
-38.885986
-31.331787
-26.252869
-25.704102
-30.616272
-40.213379
-52.287170
-64.024109
-73.077637
-78.336121
-80.134644
-79.673950
-78.223145
-76.526184
-74.456482
-71.380981
-66.436218
-59.121216
-49.536377
-38.308533
-26.179993
-13.729187
-1.155640
11.604126
24.437622
36.910156
48.354858
58.311707
66.998779
75.361328
84.695801
95.890991
108.907104
122.663086
135.477600
145.750549
152.464600
155.451355
155.056641
151.724609
145.587463
136.238953
122.887329
104.725647
81.423218
53.384277
21.985779
-10.710693
-42.261169
-70.404785
-93.543030
-111.074707
-123.313110
-131.438599
-137.134460
-141.839111
-146.068176
-148.848206
-147.674683
-139.272827
-120.975403
-92.072693
-54.610596
-13.075439
26.893188
60.109009
83.312134
95.796753
99.211060
96.656128
91.520996
86.371826
82.421753
79.516724
76.732788
73.178223
68.694336
64.009766
60.470459
59.509277
62.077637
68.329712
77.541260
88.219727
98.394653
106.157349
110.181030
110.379883
108.128906
105.882446
106.293945
111.134399
120.368774
132.080811
143.068848
149.842163
149.818604
142.117798
127.759888
109.432617
90.785522
75.312500
65.192505
60.421265
58.495728
55.004272
44.963501
24.404053
-8.435669
-52.681030
-105.294250
-162.052307
-218.465210
-270.398804
-314.320251
-347.356506
-367.203613
-372.043335
-360.705933
-332.610657
-287.418091
-225.179199
-147.289429
-57.652405
36.565247
125.558350
199.455383
251.048462
278.066101
284.029175
276.865845
266.069336
259.547607
261.497681
271.329590
284.614136
294.125122
292.215332
273.684875
237.954285
189.647278
137.324280
91.056396
59.237793
47.070435
53.505676
71.638306
91.537659
103.903076
102.469299
85.203064
54.217163
14.350769
-26.436462
-62.768127
-92.832092
-116.321594
-132.161804
-138.395081
-133.557251
-118.145203
-95.226868
-66.204895
-35.629639
-10.097412
5.930969
12.782288
14.541992
16.437500
23.122009
37.646027
65.387787
105.179016
148.353729
183.450287
201.651703
199.237732
177.730682
143.152100
74.734070
-20.600037
-114.956940
-184.010925
-223.394440
-241.182037
-246.066620
-243.211029
-235.156860
-224.022919
-207.807129
-188.216217
-170.312714
-158.320724
-152.436676
-149.764923
-147.228165
-143.151901
-137.546494
-127.952133
-114.965500
-102.087128
-92.629211
-87.243690
-84.524170
-82.797134
-81.038124
-79.040070
-74.802856
-68.188316
-61.035561
-55.337944
-51.684921
-49.521767
-48.134209
-47.248146
-47.106644
-47.106819
-47.174660
-47.341881
-46.779610
-43.423798
-35.200356
-21.503006
-3.965652
14.043320
29.212212
39.084114
42.949463
41.904396
38.135582
33.711502
29.881767
27.098267
25.486076
25.236618
26.533585
29.286049
32.891228
36.333313
38.652069
39.444908
38.982384
38.147141
38.117638
39.308594
41.662926
44.756218
47.969124
50.745369
52.794273
54.024788
54.427010
53.940132
52.707245
50.312248
46.468269
40.970264
33.624649
24.438171
13.649124
1.904423
-9.751804
-20.085102
-28.001888
-32.936417
-35.163204
-35.672443
-35.778442
-36.526955
-38.311581
-40.885567
-43.580223
-45.626167
-46.443604
-45.784157
-43.710350
-40.444344
-36.295258
-31.647568
-26.879822
-22.333023
-18.334785
-15.072159
-12.697567
-11.237411
-10.635256
-10.689087
-11.047033
-11.333778
-11.277254
-10.789021
-9.956080
-8.885477
-7.582943
-6.028687
-4.092853
-1.721391
1.073114
4.227306
7.616994
10.963547
13.949003
16.239574
17.647947
18.349173
18.862268
19.946712
22.218704
25.903540
30.442606
34.647598
36.996296
36.235229
31.840561
24.150141
14.215408
3.395658
-6.749081
-15.033188
-21.040863
-25.052620
-27.747410
-29.806980
-31.541916
-32.933067
-33.727543
-33.727859
-32.940086
-31.499817
-29.609039
-27.346233
-24.798382
-22.012539
-19.212917
-16.699879
-14.664490
-13.064476
-11.614948
-9.941917
-7.695206
-4.671753
-0.840843
3.642170
8.404724
12.887161
16.434307
18.546448
19.069721
18.361523
17.202404
16.637085
17.445236
19.952076
23.887531
28.432800
32.534912
35.087151
35.236824
32.470333
26.704956
18.393715
8.399158
-2.084705
-11.892731
-20.042702
-25.987518
-29.633698
-31.243786
-31.287449
-30.184830
-28.321259
-25.949158
-23.400520
-21.064663
-19.304138
-18.314651
-17.983326
-18.001602
-17.963398
-17.687634
-17.170654
-16.609932
-16.084381
-15.416569
-14.170742
-11.896870
-8.439270
-4.007702
0.867775
5.617741
9.904736
13.659378
17.107124
20.613613
24.525955
29.081539
34.349323
40.056244
45.583389
49.950134
52.114647
51.225967
46.953018
39.615837
30.101791
19.656471
9.525459
0.705559
-6.313805
-11.429962
-14.938126
-17.273560
-18.746613
-19.638031
-20.132355
-20.497368
-21.015022
-22.008324
-23.549866
-25.463776
-27.315643
-28.647202
-29.209557
-29.063347
-28.446190
-27.571266
-26.534065
-25.216942
-23.521698
-21.442795
-19.093719
-16.655586
-14.177467
-11.567505
-8.666443
-5.324348
-1.387291
3.145210
8.328781
14.133148
20.367950
26.617271
32.199547
36.197197
37.744339
36.363663
32.095314
25.667946
18.388435
11.654205
6.524292
3.421219
1.999733
1.494652
1.230728
0.794945
0.244049
-0.160378
-0.304054
-0.342880
-0.639404
-1.511833
-3.072327
-5.128197
-7.359123
-9.447144
-11.113419
-12.198982
-12.538124
-12.083534
-10.820419
-8.904419
-6.482574
-3.802101
-1.019150
1.705833
4.126160
6.069534
7.477882
8.536026
9.708305
11.560730
14.302032
17.668755
20.817215
22.546059
21.828545
18.193283
11.964005
4.185295
-3.758255
-10.692444
-15.946030
-19.474602
-21.657249
-22.956245
-23.572441
-23.463188
-22.483429
-20.656113
-18.301453
-15.983032
-14.162041
-12.968102
-12.124680
-11.164185
-9.686699
-7.572418
-4.990555
-2.207481
0.598236
3.408325
6.329155
9.426079
12.521423
15.246506
17.110374
17.777954
17.268265
16.053825
15.022057
15.135246
17.176537
21.371689
27.429993
34.587471
41.898666
48.316956
52.940079
55.042557
54.202744
50.378342
44.034805
36.154289
27.953712
20.568008
14.551056
9.795990
5.762787
1.780540
-2.554855
-7.298370
-12.218872
-17.011032
-21.338135
-25.030670
-27.933304
-29.827469
-30.434708
-29.592743
-27.355957
-24.031616
-20.073456
-15.855316
-11.792053
-7.955734
-3.958115
0.688309
6.136810
11.889008
16.854202
19.884323
20.364914
18.090759
13.953217
9.795181
7.435898
7.816010
10.505569
13.865356
16.011688
15.554718
11.308289
3.299866
-6.951401
-17.257614
-25.724274
-31.538010
-35.259140
-38.605194
-44.089569
-55.725128
-76.329147
-105.756226
-140.238403
-173.280319
-198.069611
-210.092957
-208.879868
-189.866470
-154.876709
-110.879593
-67.132645
-30.405014
-2.478836
18.426682
34.553452
47.014374
55.979492
60.453079
60.700058
58.511749
56.544647
56.856995
60.124634
65.321594
70.751022
74.898575
76.043915
73.853714
69.385712
64.659195
61.501015
60.752571
62.165054
65.105858
69.028702
72.830750
75.188560
74.406059
68.617981
56.483017
38.087227
15.585960
-7.061600
-25.533440
-37.177666
-41.774010
-41.310539
-38.658279
-36.150993
-34.735802
-33.998177
-32.940895
-30.880722
-27.998627
-25.036674
-22.669022
-20.971397
-19.344856
-16.845764
-12.835289
-7.487144
-1.874573
2.529335
4.574959
4.006729
1.687431
-0.846077
-2.103439
-1.394882
1.056931
4.289238
6.976662
8.437111
8.339310
6.768272
3.963852
0.220985
-4.308502
-9.468842
-15.001236
-20.548668
-25.570755
-29.541092
-32.023315
-32.840904
-32.052330
-30.042007
-27.370941
-24.677147
-22.567818
-21.443756
-21.527573
-22.297901
-22.965340
-22.404026
-19.775837
-14.718346
-7.659119
0.497044
8.647858
15.975349
22.149258
27.098690
30.937916
33.592735
34.996769
35.155964
34.260002
32.744434
30.999004
29.388485
28.034784
27.027859
26.416031
26.324255
26.722780
27.333637
27.745792
27.420166
25.962914
23.183090
19.228413
14.405903
9.351561
4.627731
0.640337
-2.402496
-4.514789
-5.823158
-6.406940
-6.019510
-4.431859
-1.441942
2.733987
7.342481
11.394285
13.939909
14.514543
13.279093
10.923662
8.411968
6.658478
6.251248
7.230528
9.248240
11.608397
13.646416
14.903241
15.278604
14.994747
14.429018
13.790039
13.024271
11.895412
10.115290
7.952696
5.790346
4.160212
3.538780
4.283447
6.361216
9.385895
12.722979
15.618832
17.350643
17.391914
15.592503
12.132088
7.473244
2.190220
-3.100151
-7.847149
-11.654697
-14.281387
-15.690651
-15.997520
-15.473530
-14.490673
-13.407898
-12.561852
-12.199959
-12.533821
-13.675709
-15.581028
-18.030914
-20.676044
-23.090916
-24.859093
-25.707317
-25.496174
-24.189022
-21.809982
-18.500320
-14.500454
-10.194534
-5.929497
-1.951626
1.727695
5.310608
9.152504
13.566116
18.691673
24.469086
30.486206
36.020828
40.043434
41.437202
39.262703
33.200699
23.706154
11.970802
-0.445381
-12.109917
-22.060066
-29.752602
-35.056877
-37.983719
-38.675285
-37.484261
-34.996849
-31.916588
-28.913567
-26.389534
-24.322594
-22.471771
-20.424255
-17.875488
-14.783417
-11.392212
-8.162781
-5.554039
-3.863785
-3.035515
-2.779190
-2.625061
-2.247681
-1.587700
-0.822792
-0.101250
0.482437
1.014755
1.568726
2.092476
2.491180
2.809624
3.344688
4.722122
7.560791
11.998360
17.486526
22.830742
26.616051
27.790779
26.080620
22.068573
16.899017
11.849785
7.903198
5.535980
4.738312
5.205383
6.573845
8.577377
10.927216
13.184135
14.618217
14.386467
11.821404
6.796875
-0.084187
-7.666565
-14.725033
-20.373253
-24.385746
-26.964054
-28.539940
-29.392738
-29.569164
-28.907207
-27.263439
-24.644951
-21.153122
-16.984989
-12.274551
-7.186565
-1.928783
3.419437
8.784908
14.169037
19.560452
24.883289
29.936832
34.475716
38.146408
40.537758
41.246590
39.901199
36.221985
30.251450
22.397942
13.478294
4.560478
-3.345490
-9.534744
-13.678650
-15.915810
-16.583099
-16.107567
-14.942703
-13.486351
-11.979683
-10.631813
-9.583397
-8.897896
-8.648170
-8.779793
-9.133621
-9.537254
-9.940018
-10.469162
-11.450432
-13.163231
-15.596397
-18.420998
-20.981789
-22.686691
-23.234261
-22.751434
-21.592346
-20.145981
-18.532181
-16.597870
-14.111065
-10.854916
-6.774231
-1.984985
3.268337
8.639267
13.663395
17.840714
20.692856
21.859417
21.219559
18.915955
15.280170
10.826553
6.209095
2.050770
-1.214809
-3.461269
-4.966919
-6.235165
-7.754990
-9.804752
-12.295929
-14.894600
-17.174015
-18.802547
-19.514759
-19.175781
-17.757992
-15.416084
-12.574139
-9.713215
-7.298351
-5.465954
-4.076248
-2.648327
-0.811512
1.659172
4.775776
8.357418
12.145775
15.874371
19.165596
21.621357
22.993956
23.267862
22.752138
22.040831
21.634914
21.740021
22.133101
22.258438
21.473188
19.414600
16.201393
12.324768
8.491756
5.309746
3.042389
1.677330
1.010983
0.889675
1.435720
2.921307
5.469769
8.846975
12.266544
14.763439
15.540319
14.412107
11.833918
8.720520
5.901224
3.825001
2.509962
1.652672
0.925898
0.120483
-0.747725
-1.620043
-2.396173
-3.019718
-3.496098
-3.802853
-3.915054
-3.779861
-3.136570
-1.582333
1.197823
5.325050
10.368050
15.549934
19.994083
23.109627
24.737598
25.136356
24.634251
23.304344
20.969009
17.380100
12.525642
6.855167
1.140591
-3.847801
-7.615192
-10.101482
-11.633404
-12.621597
-13.426205
-14.291344
-15.232018
-16.174374
-17.043739
-17.729996
-18.135780
-18.167511
-17.731270
-16.762756
-15.295578
-13.372231
-11.135765
-8.724747
-6.195038
-3.552391
-0.762878
2.195847
5.182480
7.888985
9.984451
11.176849
11.310898
10.549805
9.251961
7.883446
6.828575
6.272980
6.100754
6.040688
5.685394
4.685448
2.844139
0.201691
-3.060135
-6.530251
-9.817284
-12.582565
-14.586411
-15.759888
-16.112656
-15.679306
-14.499718
-12.661865
-10.313988
-7.746101
-5.441910
-3.844246
-3.345039
-3.957260
-5.339783
-7.004211
-8.560631
-9.943008
-11.353958
-13.141808
-15.360474
-17.719376
-19.654297
-20.551628
-20.117363
-18.380669
-15.628502
-12.163498
-8.279053
-4.144539
0.032700
4.043320
7.749924
11.153076
14.449142
17.815224
21.216431
24.190018
26.056114
26.177246
24.303558
20.778130
16.323708
11.755768
7.644608
4.147522
1.063980
-1.829361
-4.578285
-6.996681
-8.673767
-9.332764
-9.026352
-8.190445
-7.487640
-7.480759
-8.322609
-9.688850
-10.969772
-11.557770
-11.119263
-9.720886
-7.597527
-5.050140
-2.293571
0.531654
3.293732
5.793633
7.810555
9.166031
9.775764
9.728462
9.136299
8.145073
7.069199
6.220695
6.013443
6.739296
8.412033
10.724579
13.152718
15.098534
16.068710
15.840126
14.389870
11.934242
8.888321
5.787071
3.174454
1.485901
0.853333
1.118454
1.947029
2.920547
3.762138
4.315300
4.490273
4.154724
3.263702
1.774963
-0.179245
-2.305573
-4.269577
-5.772797
-6.675919
-7.020233
-6.926102
-6.553802
-6.032578
-5.442200
-4.710434
-3.737442
-2.384155
-0.573212
1.644424
4.074387
6.398788
8.371094
9.860916
10.961731
11.927460
13.136398
14.939423
17.448151
20.434937
23.295776
25.239441
25.493088
23.597000
19.448578
13.325500
5.887192
-2.113510
-9.770111
-16.235779
-20.778732
-23.053329
-23.137253
-21.577698
-19.190292
-16.707596
-14.565598
-12.819839
-11.252060
-9.637314
-7.914383
-6.147568
-4.475800
-3.047318
-1.941895
-1.227982
-0.943420
-1.021011
-1.316757
-1.594681
-1.697952
-1.672806
-1.816849
-2.464111
-3.845245
-5.913040
-8.295868
-10.552902
-12.190048
-12.822876
-12.174332
-10.099625
-6.597534
-1.985809
3.071045
7.730316
11.128525
12.745880
12.571701
11.050156
8.865372
6.656967
4.817093
3.445648
2.434631
1.497345
0.385147
-1.024506
-2.729965
-4.666672
-6.821442
-9.237259
-11.993759
-15.056107
-18.344727
-21.672104
-24.765732
-27.397873
-29.382080
-30.504425
-30.592010
-29.533081
-27.304626
-24.078522
-20.094940
-15.559967
-10.613586
-5.350327
0.101089
5.460907
10.341644
14.520432
17.940750
20.768677
23.163864
25.052933
26.058960
25.623352
23.354523
19.229141
13.700363
7.454300
1.115845
-4.834961
-10.217865
-14.900803
-18.779907
-21.696777
-23.475250
-23.931808
-23.073578
-21.126724
-18.481079
-15.621521
-12.979828
-10.671417
-8.540405
-6.193008
-3.225601
0.530777
4.871063
9.342606
13.319611
16.329529
18.141632
18.785202
18.392685
17.193207
15.403366
13.196579
10.766525
8.235321
5.672302
3.160873
0.777985
-1.297775
-2.872452
-3.717728
-3.732666
-3.013199
-1.903442
-0.815613
-0.089661
0.138306
0.030380
-0.051010
0.202255
1.026703
2.414429
4.248337
6.305588
8.397064
10.204468
11.435364
11.761398
10.967102
9.041122
6.206635
2.835205
-0.764465
-4.409912
-8.135849
-11.942688
-15.697601
-19.048386
-21.548920
-22.846771
-22.804260
-21.547684
-19.364319
-16.574844
-13.337189
-9.812988
-6.086594
-2.241989
1.669281
5.587738
9.549622
13.531189
17.454468
21.229523
24.661179
27.466309
29.359421
29.992722
29.081818
26.485321
22.320160
16.983383
11.103882
5.337952
0.159256
-4.167496
-7.659973
-10.352249
-12.250626
-13.268280
-13.297134
-12.342224
-10.548676
-8.275192
-5.923279
-3.912476
-2.424545
-1.379807
-0.470062
0.644653
2.194275
4.085663
5.953934
7.424911
8.250565
8.545197
8.627670
8.771317
8.976593
8.897537
8.047089
6.074570
3.053879
-0.579651
-4.125366
-7.004440
-8.751587
-9.167175
-8.171127
-5.840683
-2.424408
1.642776
5.688141
9.004105
11.058350
11.669693
11.053131
9.661804
8.030701
6.504288
5.204880
4.029449
2.821701
1.403091
-0.323959
-2.448608
-5.036346
-8.185852
-11.990952
-16.444992
-21.347794
-26.215164
-30.407959
-33.351883
-34.672546
-34.391907
-32.838074
-30.611298
-28.229477
-26.039169
-24.058640
-22.137253
-20.125626
-18.024399
-15.970978
-14.171936
-12.791779
-11.874680
-11.332047
-11.081940
-11.105820
-11.464981
-12.261993
-13.614838
-15.502930
-17.875748
-20.623184
-23.639099
-26.865326
-30.316803
-34.089066
-38.332336
-43.199753
-48.754852
-54.855484
-61.250809
-67.574005
-73.537796
-79.022339
-84.278915
-89.843369
-96.451431
-104.818207
-115.378922
-128.142914
-142.811401
-158.819809
-175.556992
-192.600082
-209.857010
-227.629318
-246.702393
-268.222656
-293.268738
-322.057007
-353.190613
-383.254395
-407.365845
-420.635620
-419.915588
-405.006104
-378.650146
-345.361481
-309.635803
-274.586884
-241.483246
-210.345062
-180.949829
-153.441132
-128.366028
-106.045776
-86.064575
-67.146179
-47.729980
-26.711609
-3.994995
19.488647
42.204102
62.841492
80.940002
97.108643
112.703064
129.195801
147.480347
167.507385
188.355957
208.738892
227.618530
244.713989
260.579834
276.339478
293.352539
312.865601
335.740112
362.008301
390.536377
418.706787
442.732910
458.549316
463.040894
455.268433
436.839600
411.212769
382.378296
353.474121
326.040405
300.258545
275.744141
252.325195
230.317627
210.300171
192.513550
176.671387
162.092163
148.118042
134.503662
121.504761
109.714233
99.613647
91.266357
84.246216
77.859009
71.489502
64.820068
57.994385
51.517334
45.972778
41.828979
39.183105
37.717407
36.789551
35.615967
33.499146
30.047852
25.278687
19.571045
13.568237
7.832642
2.684326
-1.906738
-6.227661
-10.562622
-14.989014
-19.139771
-22.393433
-24.039429
-23.722046
-21.502197
-17.891602
-13.550781
-9.044189
-4.702393
-0.646362
3.099609
6.503418
9.479492
12.072998
14.376709
16.532593
18.580933
20.345581
21.419067
21.272949
19.525269
16.023071
11.026978
5.056519
-1.260498
-7.299683
-12.657837
-17.145142
-20.819458
-23.876831
-26.466675
-28.600464
-30.164185
-31.018066
-31.101562
-30.661499
-30.058838
-29.656738
-29.624878
-29.909546
-30.238403
-30.347778
-30.085449
-29.402710
-28.424438
-27.270264
-26.123413
-25.177612
-24.600220
-24.493835
-24.851624
-25.538330
-26.297546
-26.925171
-27.135071
-26.659180
-25.203247
-22.512024
-18.545593
-13.612366
-8.421082
-3.770386
-0.390564
1.419373
1.790527
1.174255
0.138062
-0.926147
-1.832947
-2.611633
-3.359436
-4.205017
-5.225403
-6.433533
-7.846741
-9.457581
-11.392090
-13.874207
-17.181213
-21.525391
-26.844177
-32.744141
-38.488647
-43.230225
-46.243286
-47.152466
-45.976074
-43.074585
-38.894958
-33.857300
-28.206848
-22.060242
-15.512390
-8.716064
-1.931946
4.492432
10.159180
14.866028
18.584839
21.442200
23.588989
24.977478
25.392273
24.458435
21.833130
17.347168
11.148682
3.614685
-4.668884
-12.996460
-20.615845
-26.834167
-31.066223
-33.002258
-32.705688
-30.554382
-27.212097
-23.418457
-19.765320
-16.592285
-13.929932
-11.583984
-9.256775
-6.782227
-4.096191
-1.368164
1.150513
3.188538
4.518127
4.977905
4.529297
3.217407
1.194092
-1.305115
-4.073608
-6.917358
-9.663757
-12.206726
-14.386536
-16.065918
-17.052063
-17.207764
-16.370178
-14.446350
-11.437622
-7.415894
-2.688782
2.238281
6.759460
10.273499
12.380188
13.008911
12.386292
10.914795
9.073059
7.197571
5.420593
3.783691
2.259521
0.815491
-0.554077
-1.841248
-3.061340
-4.280426
-5.603516
-7.194855
-9.134644
-11.413727
-13.840454
-16.059814
-17.676178
-18.427643
-18.291565
-17.501709
-16.402740
-15.274628
-14.234833
-13.241547
-12.138672
-10.821533
-9.209778
-7.291534
-5.071259
-2.591644
0.017883
2.495148
4.494781
5.730865
6.127686
5.871307
5.334625
4.886841
4.704926
4.750397
4.787781
4.445740
3.368103
1.251801
-1.986938
-6.186218
-10.930054
-15.669098
-19.866302
-23.137482
-25.282501
-26.140747
-25.623566
-23.679382
-20.418762
-16.322571
-12.135376
-8.705658
-6.641541
-6.075623
-6.633484
-7.636292
-8.393738
-8.388184
-7.412079
-5.578827
-3.204681
-0.720764
1.509521
3.281342
4.586212
5.553467
6.370483
7.108551
7.747711
8.215393
8.488159
8.572601
8.595398
8.557770
8.319580
7.712463
6.666901
5.360229
4.240845
3.824677
4.432892
6.040588
8.226288
10.289001
11.544464
11.534332
10.205139
7.882507
5.110199
2.452850
0.277283
-1.330658
-2.529175
-3.639069
-4.939331
-6.603668
-8.704102
-11.190094
-13.969910
-16.928772
-19.932709
-22.759979
-25.092285
-26.610596
-27.073456
-26.386932
-24.676117
-22.218689
-19.304169
-16.149719
-12.785339
-9.089752
-4.909180
-0.259399
4.679657
9.525543
13.836212
17.190918
19.321991
20.110504
19.552155
17.765015
14.907501
11.221161
7.063217
2.858383
-0.948578
-3.944107
-5.905106
-6.770157
-6.661667
-5.812515
-4.486084
-2.870346
-1.020676
1.142227
3.727570
6.717163
9.976608
13.151886
15.878326
17.854309
18.893997
18.901093
17.852982
15.695251
12.419525
8.104767
2.899643
-2.974899
-9.258392
-15.662048
-21.856079
-27.345383
-31.515945
-33.822540
-33.904800
-31.879654
-28.179382
-23.476013
-18.369827
-13.208099
-8.027542
-2.712585
2.894836
8.801361
14.804184
20.540436
25.593521
29.563141
32.191559
33.262436
32.536621
29.773239
24.807373
17.623505
8.589523
-1.586044
-11.964859
-21.535019
-29.433167
-35.089661
-38.259628
-38.947281
-37.398224
-34.024826
-29.331635
-23.940292
-18.343857
-12.938080
-7.830856
-2.978989
1.753815
6.397568
10.838898
14.809769
17.927002
19.873978
20.458740
19.666870
17.646698
14.619217
10.802170
6.373260
1.478943
-3.787094
-9.189240
-14.392365
-18.917938
-22.181412
-23.649612
-23.047821
-20.473953
-16.437485
-11.761436
-7.257225
-3.582680
-1.015419
0.665398
1.931023
3.315552
5.164101
7.562279
10.235764
12.834282
14.999840
16.477722
17.169731
17.022934
16.017532
14.094429
11.189194
7.268600
2.453308
-2.937828
-8.414864
-13.299072
-16.935860
-18.851364
-18.878479
-17.266335
-14.569473
-11.357315
-8.080658
-4.904137
-1.754807
1.507202
4.967186
8.654968
12.523094
16.495354
20.480675
24.259186
27.409874
29.483276
29.980423
28.644783
25.473061
20.712013
14.664467
7.631561
-0.120522
-8.268692
-16.293060
-23.532539
-29.255890
-32.818192
-33.895550
-32.621624
-29.556488
-25.479820
-21.158432
-17.016731
-13.107101
-9.160007
-4.851639
-0.086807
4.874969
9.565506
13.450626
16.209328
17.790939
18.288673
17.827473
16.466507
14.142086
10.766747
6.259903
0.611908
-6.108971
-13.547676
-21.063057
-27.725910
-32.507488
-34.621029
-33.810284
-30.444311
-25.356096
-19.548691
-13.786335
-8.412916
-3.355768
1.733660
7.209146
13.253515
19.720591
26.132931
31.848661
36.207066
38.795952
39.577477
38.794235
36.896355
34.265842
31.038599
27.065388
22.078030
15.873738
8.582434
0.764009
-6.699165
-12.817089
-16.803001
-18.259987
-17.301872
-14.387833
-10.145213
-5.196618
-0.087894
4.731176
8.933344
12.378532
15.195461
17.755991
20.467361
23.465668
26.458199
28.703339
29.366516
27.915306
24.339527
19.114811
12.940529
6.368237
-0.315948
-7.006531
-13.518330
-19.503944
-24.360039
-27.536774
-28.770828
-28.192917
-26.269196
-23.526787
-20.394936
-17.026611
-13.392609
-9.353424
-4.824562
0.110847
5.261330
10.314026
14.999207
19.037979
22.232841
24.429321
25.495552
25.367081
24.092522
21.841255
18.894661
15.622849
12.344131
9.352509
6.870148
5.001648
3.808472
3.201691
2.983597
2.816299
2.400696
1.516312
0.174240
-1.419571
-2.927353
-4.002243
-4.365997
-3.871201
-2.578949
-0.742508
1.225403
2.783737
3.411484
2.684967
0.416916
-3.363266
-8.444565
-14.538193
-21.301910
-28.414062
-35.481705
-42.080063
-47.704300
-51.822418
-53.970459
-53.894897
-51.608963
-47.496048
-42.133240
-36.115265
-29.822784
-23.358093
-16.578934
-9.329239
-1.648438
6.112076
13.344620
19.382141
23.673050
25.951126
26.216858
24.661789
21.545670
17.111954
11.567139
5.046844
-2.304626
-10.317780
-18.692047
-26.981537
-34.500977
-40.520294
-44.302063
-45.394043
-43.751648
-39.785065
-34.231659
-27.957520
-21.669128
-15.763794
-10.289886
-5.070709
0.077606
5.191406
10.037476
14.276520
17.580658
19.799500
20.953064
21.176941
20.598419
19.302094
17.312378
14.597076
11.161102
6.979401
2.086426
-3.455353
-9.461884
-15.592072
-21.305023
-26.003876
-29.181671
-30.590393
-30.257751
-28.427277
-25.433990
-21.536346
-16.960358
-11.903870
-6.617676
-1.461121
3.183807
6.975098
9.680542
11.226166
11.671539
11.152466
9.820831
7.852142
5.430511
2.767395
0.005310
-2.779388
-5.576508
-8.368500
-11.085144
-13.519165
-15.379456
-16.357117
-16.210999
-14.826324
-12.178772
-8.332764
-3.447296
2.128067
7.870300
13.128464
17.240356
19.768585
20.633560
20.176224
18.971100
17.622070
16.546555
15.931366
15.692841
15.565796
15.293579
14.670746
13.656158
12.311188
10.752014
9.068558
7.308304
5.535797
3.860138
2.494415
1.732834
1.820312
2.786697
4.469849
6.516068
8.607697
10.599258
12.562943
14.740601
17.309113
20.279358
23.447540
26.500671
29.087555
30.914642
31.830170
31.830078
31.077698
29.861145
28.551025
27.442963
26.589508
25.750549
24.456512
22.307617
19.124451
15.106476
10.762848
6.626740
3.122864
0.413239
-1.552490
-2.954010
-3.860291
-4.285950
-4.157013
-3.409576
-2.101410
-0.391235
1.499451
3.399902
5.235077
7.001373
8.629761
9.920898
10.621246
10.394592
9.090759
6.802032
3.859222
0.673035
-2.412689
-5.229034
-7.793304
-10.145416
-12.367706
-14.439514
-16.231964
-17.569977
-18.214539
-17.978210
-16.763184
-14.655090
-11.895599
-8.957886
-6.459534
-5.060760
-5.371216
-7.797699
-12.427094
-18.925812
-26.546204
-34.289276
-41.293732
-47.096375
-51.808929
-56.056122
-60.553253
-65.805054
-71.792236
-77.987427
-83.479706
-87.324554
-88.768402
-87.337585
-82.977570
-75.980103
-66.958466
-56.717346
-46.085144
-35.644989
-25.675873
-16.137512
-6.812256
2.447205
11.589081
20.422760
28.616699
35.766205
41.496918
45.400818
47.110687
46.359070
43.198486
38.051880
31.646698
24.819122
18.149902
11.912903
6.088043
0.545227
-4.712952
-9.465332
-13.333038
-15.960114
-17.169861
-17.080078
-15.978333
-14.198578
-12.027954
-9.608795
-7.044678
-4.488037
-2.155640
-0.317291
0.779083
1.002563
0.395111
-0.921661
-2.707947
-4.768677
-6.922729
-8.957336
-10.679901
-11.889862
-12.443390
-12.281372
-11.478638
-10.104309
-8.287781
-6.223602
-4.087524
-2.142548
-0.599915
0.460724
1.167206
1.724396
2.360626
3.146362
3.927383
4.500443
4.697479
4.487869
3.978226
3.336533
2.681274
2.100891
1.671295
1.408615
1.362747
1.422180
1.491287
1.491974
1.487823
1.698044
2.347961
3.484985
4.892426
6.157608
6.854172
6.813354
6.203857
5.411545
4.804718
4.471039
4.256302
3.854248
3.063141
1.878647
0.507004
-0.731354
-1.573929
-1.950653
-1.897995
-1.520996
-0.910767
-0.067291
0.994537
2.243835
3.542175
4.669266
5.509384
6.035774
6.424965
6.860687
7.533112
8.472023
9.533684
10.491127
11.078331
11.111275
10.528343
9.403091
7.865913
6.217255
4.798126
3.911728
3.783043
4.400299
5.561501
6.899086
8.102974
8.906860
9.229073
9.097481
8.559608
7.676224
6.432823
4.863518
3.024677
1.109684
-0.648842
-2.048794
-3.027855
-3.706490
-4.250465
-4.912357
-5.742508
-6.647972
-7.356319
-7.530777
-6.918255
-5.481781
-3.320553
-0.618679
2.362251
5.421848
8.431982
11.323147
14.087461
16.784119
19.501410
22.302673
25.235224
28.175407
30.859013
32.873158
33.775406
33.186680
30.980423
27.263004
22.383043
16.825001
11.047929
5.384789
0.007217
-5.057072
-9.793275
-14.169888
-18.039017
-21.178074
-23.336981
-24.305552
-23.983414
-22.417860
-19.764389
-16.296652
-12.306210
-8.060610
-3.773787
0.389921
4.349970
8.003269
11.269751
14.031679
16.199368
17.738850
18.662359
18.932657
18.462809
17.042002
14.463604
10.594864
5.587833
-0.081032
-5.634579
-10.212128
-13.156879
-14.145317
-13.261913
-10.915333
-7.670399
-4.098080
-0.626625
2.564331
5.523502
8.417339
11.486286
14.766331
18.040260
20.885376
22.837208
23.512413
22.868088
21.101913
18.558918
15.627487
12.462826
9.061939
5.346268
1.306400
-2.943867
-7.153042
-11.051945
-14.447079
-17.196346
-19.303600
-20.734764
-21.437344
-21.287094
-20.192970
-18.167152
-15.449398
-12.408226
-9.367050
-6.541683
-3.846279
-0.998146
2.204006
5.762016
9.379021
12.531929
14.692085
15.603485
15.211132
13.670898
11.196083
7.938118
4.152084
0.244949
-3.134880
-5.292419
-5.722359
-4.398689
-1.812492
1.209190
3.816475
5.580757
6.535934
7.192192
8.147697
9.821304
12.232384
15.073448
17.836815
20.061752
21.488663
22.004074
21.606964
20.286545
18.039581
14.864380
10.858261
6.240021
1.235474
-3.839622
-8.720398
-13.086327
-16.635979
-19.037727
-20.096298
-19.779732
-18.281769
-15.986023
-13.349197
-10.756340
-8.392265
-6.278748
-4.254448
-2.077339
0.467972
3.474388
6.819458
10.188354
13.175217
15.444572
16.773590
17.142326
16.662216
15.492882
13.793442
11.686256
9.260681
6.570824
3.626968
0.384644
-3.106651
-6.666878
-10.006691
-12.767960
-14.687988
-15.655853
-15.714813
-14.937561
-13.400696
-11.063118
-7.896713
-3.964371
0.593857
5.448830
10.219658
14.484856
17.888313
20.153488
21.183418
21.074226
20.011765
18.252525
15.953735
13.193707
10.014503
6.487217
2.710510
-1.148972
-4.949093
-8.615082
-12.022942
-14.985115
-17.184002
-18.230587
-17.870960
-16.095665
-13.140022
-9.410759
-5.340115
-1.141235
3.156116
7.674232
12.505379
17.590099
22.625248
27.126869
30.522747
32.326447
32.326443
30.595921
27.416466
23.147953
18.087276
12.461452
6.511135
0.540909
-5.008316
-9.642582
-13.027447
-15.061142
-15.957821
-16.058308
-15.760235
-15.346676
-14.942211
-14.462015
-13.721987
-12.521610
-10.735031
-8.335804
-5.424072
-2.226778
0.982405
3.910538
6.334303
8.146008
9.260389
9.719765
9.598810
9.003141
8.011299
6.702790
5.119855
3.377024
1.648916
0.182637
-0.771156
-1.020728
-0.531075
0.567594
1.961540
3.299444
4.275055
4.721836
4.644616
4.240034
3.791467
3.568265
3.742190
4.414939
5.579424
7.123957
8.844947
10.488522
11.756235
12.400444
12.225525
11.195211
9.437462
7.137220
4.442905
1.371141
-2.157084
-6.196203
-10.691729
-15.367001
-19.711899
-23.112175
-25.107178
-25.363640
-23.831688
-20.642982
-16.143459
-10.851219
-5.381805
-0.301178
3.990498
7.339268
9.929058
12.117764
14.304600
16.788521
19.704205
23.000256
26.408234
29.412201
31.238182
31.061272
28.257332
22.674309
14.791061
5.586952
-3.715790
-11.949539
-18.192833
-21.891586
-22.915466
-21.610413
-18.712585
-15.175285
-11.942635
-9.594986
-8.250427
-7.532394
-6.845154
-5.639954
-3.609062
-0.791252
2.538651
5.916397
8.845772
10.888000
11.769920
11.477547
10.189590
8.233185
5.872612
3.273697
0.495377
-2.403427
-5.243454
-7.665405
-9.226746
-9.600754
-8.683762
-6.642960
-3.891129
-0.923508
1.739014
3.649094
4.543640
4.342972
3.122589
1.159149
-1.188553
-3.537277
-5.574142
-7.087845
-8.065033
-8.600815
-8.857864
-9.031662
-9.319275
-9.864044
-10.700073
-11.724594
-12.774414
-13.656815
-14.285828
-14.658279
-14.856583
-14.928589
-14.909286
-14.703796
-14.128448
-12.953827
-11.009735
-8.166794
-4.469421
-0.128204
4.487656
8.938339
12.823410
15.997894
18.501480
20.483948
22.058731
23.083878
23.170349
21.780167
18.445007
12.978958
5.673111
-2.710876
-11.139999
-18.485016
-23.872543
-26.840652
-27.418213
-26.054443
-23.422745
-20.131653
-16.668915
-13.280243
-10.021713
-6.919754
-3.992218
-1.261353
1.179092
3.184875
4.661835
5.525330
5.791656
5.590103
5.036392
4.221649
3.176376
1.872086
0.252655
-1.615662
-3.587387
-5.410110
-6.713821
-7.174545
-6.484879
-4.465042
-1.212753
2.863373
6.990845
10.220688
11.679138
10.964630
8.238480
4.237686
0.015808
-3.460739
-5.478287
-5.782623
-4.571274
-2.373093
0.146515
2.292938
3.484756
3.383682
1.892471
-0.775238
-4.209930
-7.907104
-11.388550
-14.298065
-16.505585
-18.036835
-18.957428
-19.368652
-19.286407
-18.677643
-17.505676
-15.777588
-13.588989
-11.123810
-8.550232
-5.896729
-3.141846
-0.154297
3.212799
7.092896
11.513214
16.289886
20.993774
24.940430
27.307709
27.366882
24.732330
19.540558
12.448486
4.466919
-3.361328
-10.219696
-15.653351
-19.602783
-22.298248
-24.031097
-25.081238
-25.631531
-25.731171
-25.396454
-24.673279
-23.666595
-22.574707
-21.592926
-20.823120
-20.227509
-19.657135
-18.865570
-17.660400
-15.972687
-13.937408
-11.846588
-10.084778
-8.984619
-8.638031
-8.811096
-8.997406
-8.664520
-7.484619
-5.532944
-3.178101
-0.935944
0.821335
1.959137
2.624420
3.156967
3.880173
5.126816
7.151428
10.136734
14.051315
18.565521
23.003250
26.451309
28.126144
27.607819
25.008774
20.836044
15.809219
10.545486
5.429123
0.601410
-3.917587
-8.064972
-11.642044
-14.417236
-16.215714
-17.118439
-17.459518
-17.716599
-18.304230
-19.399948
-20.825272
-22.201874
-23.088272
-23.222137
-22.596466
-21.407242
-19.885010
-18.204514
-16.481857
-14.725601
-12.966690
-11.162079
-9.250427
-7.197739
-5.012604
-2.796112
-0.645767
1.303101
3.001892
4.414093
5.571411
6.468079
7.112289
7.433075
7.435760
7.103073
6.530014
5.869370
5.383759
5.428589
6.368439
8.472885
11.795197
16.071289
20.742111
25.164780
28.773438
31.149918
32.107864
31.546555
29.441162
25.872589
21.029800
15.294510
9.291245
3.713287
-0.849304
-4.085220
-6.054321
-7.072784
-7.591980
-8.043808
-8.761475
-9.989075
-11.824432
-14.279640
-17.161964
-20.070450
-22.397575
-23.503975
-22.926826
-20.659447
-17.186279
-13.376610
-10.143578
-8.102943
-7.302361
-7.264122
-7.196869
-6.403160
-4.600784
-1.955330
0.974274
3.612274
5.552864
6.736603
7.340538
7.646263
7.907272
8.188965
8.435043
8.488403
8.134186
7.185432
5.552002
3.251923
0.533379
-2.072968
-3.885422
-4.115608
-2.195213
1.970314
7.864120
14.411430
20.258408
24.196396
25.589104
24.472900
21.562168
17.865810
14.358612
11.707458
10.135773
9.517712
9.498779
9.703232
9.741993
9.333191
8.305691
6.562912
4.120438
1.022064
-2.635132
-6.721588
-10.965897
-15.079742
-18.689667
-21.445576
-23.107533
-23.545361
-22.820225
-21.121273
-18.703276
-15.778015
-12.540216
-9.160116
-5.722506
-2.264816
1.237738
4.789497
8.399710
11.919724
15.152779
17.814932
19.583036
20.270369
19.845066
18.448299
16.332207
13.811139
11.141120
8.537704
6.264914
4.621548
3.967390
4.567550
6.418758
9.139208
12.061436
14.383346
15.514585
15.209147
13.676544
11.422441
9.095309
7.231133
6.267698
6.401439
7.586246
9.517488
11.708810
13.538519
14.496987
14.255787
12.804353
10.403063
7.442749
4.219751
0.971587
-2.168953
-5.082051
-7.576008
-9.462639
-10.522521
-10.625532
-9.780259
-8.137338
-5.926415
-3.353487
-0.630431
2.150024
4.900268
7.623272
10.305343
12.958982
15.541673
17.986324
20.163940
21.926344
23.135887
23.756283
23.838409
23.506561
22.910400
22.149952
21.214809
19.954521
18.139944
15.588945
12.196363
8.048786
3.398956
-1.342005
-5.650297
-8.996819
-10.961006
-11.344671
-10.241447
-8.039042
-5.262766
-2.384876
0.217863
2.383797
4.059933
5.218250
5.815144
5.761921
4.946796
3.331356
0.956657
-2.018349
-5.351421
-8.721970
-11.838959
-14.460361
-16.455551
-17.895786
-18.900833
-19.670460
-20.345177
-20.924210
-21.255981
-21.104183
-20.210148
-18.389496
-15.576843
-11.883945
-7.550541
-2.916523
1.674496
5.873047
9.312553
11.647423
12.477310
11.571571
8.847145
4.532143
-0.893196
-6.758003
-12.419975
-17.396912
-21.434822
-24.550354
-26.934937
-28.841270
-30.515175
-32.041191
-33.326981
-34.093262
-33.960884
-32.505829
-29.479309
-24.988548
-19.601807
-14.269028
-10.047298
-7.775551
-7.699009
-9.413300
-11.941177
-14.139320
-15.105534
-14.523212
-12.659569
-10.117680
-7.608242
-5.499645
-3.875107
-2.530586
-1.215603
0.200207
1.664604
3.047310
4.295654
5.485970
6.908371
8.825752
11.340809
14.223557
16.945574
18.811583
19.224569
17.983673
15.316772
11.909157
8.603682
6.150610
4.921965
4.927259
5.854063
7.331104
9.103370
10.994154
12.841867
14.365117
15.195568
14.937922
13.362585
10.480621
6.530110
1.925465
-2.914991
-7.511723
-11.397284
-14.092937
-15.152553
-14.344943
-11.743294
-7.788003
-3.148043
1.440065
5.445590
8.628618
11.086796
13.164106
15.265925
17.648159
20.297108
22.932594
25.004066
26.031912
25.605087
23.556349
19.977602
15.189327
9.607298
3.679546
-2.130969
-7.423471
-11.797678
-14.842678
-16.252369
-15.771408
-13.442392
-9.672707
-5.259666
-1.180252
1.717464
3.010393
2.871712
1.888792
0.868177
0.408195
0.749771
1.754583
3.097147
4.440239
5.611061
6.593517
7.394964
8.040401
8.453365
8.557240
8.327162
7.807621
7.120476
6.422514
5.869814
5.590118
5.749500
6.605856
8.406669
11.343032
15.268431
19.694260
23.768078
26.571947
27.375988
25.936573
22.628012
18.255314
13.788793
10.019129
7.414893
6.067585
5.789588
6.236295
7.008048
7.676061
7.790950
7.008525
5.091449
2.117147
-1.590871
-5.449896
-8.790804
-11.006465
-11.695638
-10.804420
-8.570417
-5.491858
-2.142286
0.936579
3.427376
5.233126
6.487114
7.459682
8.416203
9.571211
10.993113
12.616383
14.195137
15.447346
16.051121
15.794617
14.654686
12.817291
10.614731
8.420387
6.470673
4.753658
