1428499898.000000
64.000000
-0.000000
-0.000000
-0.000000
-0.000000
-0.000000
-0.000000
-0.000000
-0.000000
-0.000000
-0.002232
0.004517
0.011266
0.011384
-0.001186
-0.025910
-0.050634
-0.051363
0.001493
0.130243
0.355628
0.659125
1.009510
1.370983
1.719736
2.055110
2.399450
2.786664
3.239907
3.796012
4.418684
5.059294
5.664410
6.202154
6.680880
7.149598
7.678234
8.310739
9.143657
10.089731
11.041313
11.884212
12.564316
13.135630
13.760044
14.652320
15.962056
17.914442
20.317299
22.903854
25.379471
27.578028
29.572460
31.675173
34.317799
37.813618
42.541233
48.146301
54.104755
59.833092
64.972374
69.582932
74.143532
79.344986
85.707260
93.761932
102.997787
112.617569
121.730339
129.766022
136.751022
143.303436
150.746231
157.773560
166.643234
177.947983
191.791016
206.968079
220.565918
228.246445
225.361542
208.531982
176.870239
132.762222
80.049973
23.069275
-34.943390
-92.436951
-149.156952
-205.227722
-260.369629
-313.741333
-363.873962
-409.833527
-450.907745
-486.502441
-515.738647
-537.227417
-549.219971
-549.961304
-538.367004
-514.205505
-478.674011
-433.879517
-382.451263
-327.021057
-269.841858
-212.633789
-156.659393
-102.952332
-52.373596
-5.904694
35.580414
71.425842
101.351837
125.501129
144.379700
158.694031
169.150711
176.371094
180.751389
182.574188
182.068634
179.506607
175.233246
169.652863
163.176910
156.145676
148.806808
141.296860
133.689835
126.019623
118.332680
110.688637
103.155724
95.804550
88.684166
81.827438
75.245941
68.952599
62.949085
57.247494
51.857185
46.782822
42.027760
37.585209
33.451748
29.613855
26.070963
22.808779
19.824995
17.113392
14.666497
12.479320
10.538469
8.833674
7.347853
6.067689
4.973423
4.046258
3.267375
2.621137
2.088365
1.650751
1.297691
1.014702
0.791059
0.613321
0.475162
0.368465
0.284617
0.223973
0.176477
0.140555
0.112515
0.092625
0.079772
0.067835
0.059293
0.052184
0.046861
0.044132
0.040358
0.039164
0.034331
0.035156
0.031817
0.030751
0.028105
0.029291
0.027454
0.026081
0.023852
0.022989
0.022173
0.022157
0.020828
0.020277
0.019405
0.018795
0.019170
0.017195
0.016264
0.016768
0.016039
0.016356
0.012255
0.014532
0.013970
0.015105
0.011058
0.013126
0.011830
0.011562
0.011306
0.011727
0.011189
0.008973
0.010070
0.010107
0.008293
0.012381
0.009308
0.009468
0.007700
0.008274
0.006166
0.011123
0.006164
0.006358
0.007079
0.006247
0.005514
0.004905
0.008739
0.002807
0.007830
0.006052
0.013667
0.021459
0.026842
0.037926
0.056427
0.072202
0.096205
0.122669
0.151138
0.178176
0.213431
0.248298
0.281237
0.319218
0.359427
0.397375
0.438720
0.481031
0.526940
0.580553
0.632535
0.689394
0.756976
0.821346
0.900294
0.988035
1.079711
1.181599
1.299810
1.437156
1.588509
1.774632
1.973510
2.180110
2.387868
2.579491
2.772208
2.985193
3.236291
3.556817
3.942238
4.378983
4.845582
5.316993
5.775523
6.238204
6.724653
7.285261
7.920133
8.644376
9.410277
10.179461
10.921029
11.613054
12.299301
13.041784
13.909091
14.934854
16.103456
17.276423
18.271074
18.887205
18.965174
18.456230
17.422876
16.004444
14.297476
12.337057
10.011316
7.118534
3.560486
-0.633266
-5.169254
-9.569178
-13.326956
-16.090714
-17.818924
-18.832516
-19.637398
-20.737301
-22.335751
-24.269001
-26.029457
-27.051254
-27.058895
-26.116749
-24.718170
-23.487049
-22.933743
-23.288925
-24.597942
-26.792198
-29.676907
-32.691093
-34.676922
-34.067528
-29.498734
-20.635277
-8.762569
3.444489
13.152279
18.695091
20.176834
19.145168
17.560513
16.688229
16.492809
16.011780
14.327095
11.725574
9.856506
10.730125
15.534046
23.822830
33.646168
42.503510
48.220291
49.814735
47.987442
44.483292
40.871433
37.620796
34.361885
30.613754
26.611351
23.203659
20.835991
20.303406
22.484070
27.534393
34.311859
41.043617
45.871391
49.014984
49.925964
46.368172
37.879890
26.721512
16.286140
9.071648
5.974487
6.274132
7.883972
7.824417
0.702110
-14.886803
-35.185776
-54.481148
-69.080482
-78.196434
-83.193024
-86.532364
-91.045990
-102.967880
-124.806816
-153.697266
-184.523010
-213.058746
-235.825745
-249.487488
-251.448914
-216.308182
-143.800446
-59.901085
8.454681
52.342804
76.028763
87.203735
91.849457
93.021461
91.773087
84.755432
72.059929
58.536774
49.627831
47.311714
50.177773
55.523384
60.713776
64.313965
63.037682
56.731232
48.900047
43.492531
41.997498
43.599411
46.595589
49.343796
50.848587
48.893898
43.293289
36.326942
30.827904
28.377213
29.107048
32.495064
37.480293
42.859970
46.471169
47.223396
45.684402
43.492134
42.447464
43.826302
47.879646
53.476540
58.410324
59.897881
56.186905
47.270226
34.425209
19.405403
3.647392
-11.835045
-26.275238
-38.821434
-48.452461
-54.241196
-56.010139
-54.443207
-50.902184
-46.879623
-43.400955
-40.806152
-38.938644
-37.884613
-37.239716
-36.912384
-36.892685
-36.997101
-37.028595
-36.711121
-35.941742
-34.857895
-33.714554
-32.920975
-32.958511
-34.248749
-36.755096
-39.937241
-42.622421
-43.308517
-40.758636
-34.482483
-25.110641
-14.345703
-4.352280
2.975098
6.599579
6.566589
3.830200
-0.123535
-3.670517
-5.382889
-4.410522
-0.560104
5.585098
12.798813
19.520218
24.290588
26.138306
24.803970
20.671127
14.444092
6.951355
-1.096893
-9.123108
-16.648239
-23.390717
-29.225342
-34.157867
-38.337448
-42.033630
-45.475021
-48.861786
-52.302345
-55.688515
-58.891617
-61.604134
-63.459320
-64.001221
-62.916084
-60.024925
-55.472099
-49.869095
-43.215935
-35.462234
-26.512993
-16.266724
-4.942574
6.736130
17.692589
26.715034
33.032021
36.670677
38.215164
38.755203
39.251724
40.276890
41.837284
43.711712
45.520401
47.062969
48.192574
48.691238
48.160309
46.079414
41.972099
35.599789
27.113110
17.137707
6.596037
-3.419511
-11.913437
-18.310780
-22.629564
-25.473265
-27.932047
-31.103897
-35.826485
-42.298775
-50.163754
-58.502682
-66.473953
-73.464569
-79.448853
-84.869705
-90.605431
-97.743240
-107.493423
-120.825020
-137.640930
-156.738403
-175.363083
-189.675339
-195.846130
-191.509613
-176.972656
-155.358505
-131.674347
-110.477997
-94.843109
-85.427277
-80.885544
-78.977631
-77.637421
-75.443512
-71.203064
-66.399170
-60.802765
-53.653717
-44.243286
-32.620544
-19.691864
-6.921967
4.239014
13.152863
20.223907
27.155090
35.755829
47.294800
61.934967
78.783447
96.331055
113.090942
128.198486
141.678345
154.639893
168.619385
185.259277
205.894653
230.998413
259.489502
288.401672
313.155273
328.649963
331.179810
319.577026
295.780396
264.115112
229.598022
196.248047
166.044495
139.075073
114.299377
90.741638
67.798889
45.339050
23.413513
2.209656
-17.805664
-35.684814
-49.965393
-59.139832
-62.189087
-59.183289
-51.344543
-40.698914
-29.420410
-19.162048
-10.788452
-4.468689
-0.015747
2.776733
3.889832
3.183838
0.625122
-3.529602
-8.602600
-13.679443
-17.881836
-20.645386
-21.879761
-21.934204
-21.412964
-20.837158
-20.622620
-20.908447
-21.840576
-23.519043
-26.147888
-29.891968
-34.754333
-40.544922
-46.966248
-53.753052
-60.789246
-68.146912
-76.019714
-84.606506
-94.096619
-104.619629
-116.278625
-128.942810
-142.122925
-154.642334
-164.707397
-170.132385
-168.859558
-159.623230
-142.339294
-118.229492
-89.461548
-58.648560
-28.276367
-0.372803
23.666138
43.010437
57.301880
66.686523
71.709534
73.339050
72.824097
71.465393
70.256226
69.672424
69.618530
69.577393
68.971008
67.447327
65.012085
61.898926
58.370972
54.511353
50.176636
45.164490
39.265564
32.445740
24.761108
16.298889
7.172668
-2.429810
-12.234497
-21.866394
-31.099121
-40.098633
-49.616516
-60.837463
-74.752197
-91.472046
-109.751282
-127.014771
-140.135498
-146.469360
-144.736572
-135.721069
-121.965881
-106.820679
-93.205627
-82.583496
-74.657288
-67.891174
-60.349365
-50.446716
-37.692688
-22.744385
-7.207275
6.896362
17.535889
23.219482
23.276733
18.300171
10.639893
3.674927
0.789551
4.053955
13.246582
25.747192
37.464722
44.335327
43.968506
37.824463
29.675903
24.036377
24.195312
31.229736
44.088379
60.538574
78.058960
94.561035
110.988892
128.193237
145.846924
161.957397
173.911621
180.292603
182.127441
182.678223
186.046021
199.561646
227.695557
270.350586
322.359497
375.602661
422.402832
458.309570
482.932495
499.176392
517.109863
546.045410
591.151123
651.091064
718.819214
784.816406
840.895264
882.448486
875.162109
798.822998
650.848267
450.402100
230.128479
20.881714
-158.469910
-301.506470
-409.751373
-488.371155
-538.483887
-562.213013
-563.827271
-550.124329
-528.903931
-506.534668
-486.453888
-469.591492
-455.939636
-441.531677
-423.471100
-400.916290
-375.303528
-349.353821
-325.324036
-304.187988
-285.876526
-270.335938
-255.428131
-239.710632
-222.897324
-206.023315
-190.857788
-178.570419
-168.682617
-159.001221
-146.575562
-128.028702
-102.503616
-72.733032
-44.533798
-24.548508
-17.118042
-22.207977
-35.420578
-50.094521
-59.743767
-60.816429
-53.436165
-40.502998
-25.781433
-12.165649
-0.887680
8.068047
15.138023
20.425339
23.604103
24.209770
22.305893
18.691498
14.721252
11.755402
10.475586
10.431580
10.396606
8.475334
3.584885
-4.045418
-12.731056
-20.004662
-23.629280
-22.688950
-17.988838
-11.835342
-6.964920
-5.443932
-7.816628
-13.132919
-19.457901
-24.753616
-27.595306
-27.409042
-24.498062
-19.604027
-13.562218
-7.088608
-0.609161
5.576408
11.356995
16.559708
20.982292
24.349060
26.453278
27.244667
26.930565
25.897270
24.591515
23.333252
22.227348
21.108826
19.651764
17.524208
14.607841
11.033966
7.295998
4.054085
2.051636
1.716141
3.014160
5.248695
7.185631
7.517868
5.383163
0.891739
-4.761368
-9.839806
-12.375656
-11.040810
-5.607079
2.992241
12.812775
21.349628
25.975746
24.452477
15.625183
0.200897
-18.996353
-37.507133
-50.484455
-54.470078
-48.746414
-35.535912
-19.047916
-3.679131
7.671238
14.151455
16.618885
16.539913
15.125824
12.878376
9.991661
6.879787
4.313656
3.307224
4.452110
7.510590
11.227898
13.811085
13.710300
10.234455
3.885426
-3.871288
-11.170265
-16.585392
-19.645947
-20.844765
-21.186085
-21.471245
-21.851048
-21.795288
-20.442684
-17.088402
-11.750553
-5.178886
1.421261
6.791172
9.995224
10.591904
8.654076
4.661606
-0.472511
-5.846771
-10.717850
-14.613598
-17.397259
-19.052628
-19.558498
-18.562298
-16.542496
-13.440598
-9.376793
-4.743385
-0.080124
4.056812
7.324036
9.531746
10.639988
10.505688
9.102421
6.404327
2.574406
-1.995796
-6.800232
-11.464081
-15.940960
-20.512985
-25.710381
-31.890072
-39.141167
-47.146614
-55.031025
-61.568092
-65.312233
-64.982201
-59.752968
-49.559502
-35.077805
-17.658470
0.912537
18.950462
35.097000
48.602806
59.245316
67.152267
72.513145
75.420776
75.775803
73.320435
67.931671
59.734688
49.230042
37.276703
24.920860
13.253975
3.248367
-4.363785
-9.287483
-11.659897
-12.121864
-11.686646
-11.411919
-12.155334
-14.295593
-17.706474
-21.892982
-26.298302
-30.501060
-34.329117
-37.887527
-41.450539
-45.445549
-50.189529
-55.814423
-61.980057
-67.838043
-72.028641
-73.120026
-70.058670
-62.511841
-51.055496
-36.949265
-21.666260
-6.452271
7.949310
21.140060
32.829956
42.408432
49.073914
52.064957
51.164108
46.951828
40.763229
34.100647
28.054062
23.045303
19.025940
15.895172
13.946289
13.517548
14.689484
16.844650
18.888214
19.631424
18.628815
16.275894
13.517746
11.122299
9.206070
7.264893
4.662079
1.139847
-3.058044
-7.453781
-11.825851
-16.405136
-21.509674
-27.072540
-32.008987
-34.428696
-32.267975
-24.414612
-11.240356
5.410156
23.329407
41.149002
59.024048
78.472534
101.164734
127.434158
155.423309
181.209564
199.988449
207.667267
202.422333
184.972244
158.373413
126.843628
94.744629
65.534210
41.156281
21.767380
5.963791
-8.562469
-24.110062
-42.030899
-62.237549
-83.147949
-102.125519
-116.402557
-123.894196
-124.141769
-118.428070
-109.703094
-101.475693
-96.906296
-97.604202
-103.079819
-111.066757
-118.404144
-122.365570
-121.511818
-116.018616
-107.089722
-96.052261
-83.518333
-69.116623
-51.847549
-30.740433
-5.473801
23.564705
55.381783
88.726807
122.117500
153.817627
181.715637
203.507416
217.214127
221.786560
217.570908
206.141266
189.596741
169.858795
148.023026
124.514565
99.510620
73.796951
48.949574
27.214710
10.738909
0.850679
-2.283885
0.470423
7.757561
18.380260
31.629438
47.315903
65.476364
86.134140
109.011627
133.389252
157.873276
180.356949
198.011032
207.802963
207.139069
194.768234
171.458893
140.188828
105.764771
73.727417
48.922958
34.108734
29.164886
30.951080
34.326721
33.730530
24.726776
4.988983
-25.495483
-64.700226
-108.886200
-152.886780
-190.564026
-215.832275
-224.073639
-213.581940
-186.185181
-146.537964
-100.340027
-52.292175
-4.951111
41.238464
86.645752
131.133789
173.174622
210.024414
238.474060
255.792908
260.412720
252.145325
232.134033
202.606018
166.416260
126.391968
85.077148
44.398010
5.631653
-30.286255
-62.751770
-91.325623
-115.762634
-136.010925
-152.134644
-164.170166
-172.019531
-175.499146
-174.485474
-169.176025
-160.204712
-148.556274
-135.343872
-121.526245
-107.789795
-94.678223
-82.819458
-73.031860
-66.255127
-63.195435
-63.982056
-67.932495
-73.654907
-79.433472
-83.770020
-85.932129
-86.077637
-85.082642
-84.024048
-83.654541
-84.155029
-85.130859
-85.965088
-86.159668
-85.596680
-84.485229
-83.238037
-82.101074
-80.955322
-79.368164
-76.783203
-72.868774
-67.729736
-62.054932
-56.969604
-53.710327
-53.250366
-55.866943
-61.059326
-67.588989
-73.786011
-77.894409
-78.478638
-74.819580
-67.438354
-58.446655
-51.330322
-50.311401
-58.870728
-78.314209
-106.936401
-140.300293
-172.607422
-198.660278
-215.313843
-221.971558
-220.037231
-211.722290
-199.023560
-183.243164
-165.142822
-145.519043
-125.488770
-106.661743
-90.673950
-78.792480
-71.461792
-68.264282
-68.196655
-70.129883
-73.345947
-77.743286
-83.770386
-92.159058
-103.424072
-117.749023
-135.057739
-155.188843
-177.928223
-202.745605
-228.404907
-252.627075
-272.271118
-284.126099
-286.115601
-278.258057
-262.876831
-243.836060
-225.089966
-209.404053
-197.591553
-188.698120
-180.589539
-171.204163
-159.148071
-144.117371
-126.648499
-107.808411
-88.831848
-70.683838
-53.579224
-36.291382
-16.790405
7.139526
37.067139
73.268188
114.511322
158.149292
200.712219
238.869934
271.082520
297.040680
317.295990
332.934235
345.517517
356.623688
367.162933
376.869293
384.321930
388.706360
388.977570
384.019043
373.296234
357.718750
339.587891
321.609985
305.585968
291.563354
279.432495
267.687531
254.293182
238.278625
221.455109
207.961075
201.747269
203.757187
200.307678
179.483017
136.775894
76.846222
8.309402
-59.727859
-118.970490
-163.087128
-188.650681
-195.539627
-184.848648
-160.493683
-128.937897
-97.494728
-71.582314
-53.259445
-41.806057
-35.664303
-33.904087
-35.563484
-40.346664
-47.717690
-56.157349
-62.941139
-65.272202
-61.965462
-54.286774
-45.468735
-37.972900
-33.352692
-31.827530
-32.399071
-33.389648
-33.122215
-30.591927
-25.168007
-18.796448
-11.058105
-0.915833
12.282257
28.073029
44.738266
59.664200
70.316544
75.027695
73.467102
67.001831
57.400604
46.210297
34.587234
23.409943
13.626083
6.216202
1.862610
0.577972
1.844818
4.484497
7.213730
9.208176
10.233932
10.432831
10.042953
9.034271
7.272202
4.805130
1.909500
-0.886444
-2.779251
-3.101562
-1.590378
1.382477
4.957565
8.210602
10.916336
13.700165
18.131668
26.127274
39.159042
57.545197
80.382721
105.830215
131.938843
157.291641
181.319000
204.169937
226.417145
248.686859
271.376556
294.292908
316.321960
335.317383
348.354492
352.632996
346.518738
330.278534
306.235413
277.913055
248.838440
221.421387
196.594742
174.110245
153.337189
133.900055
115.789749
99.129425
83.728188
68.887817
53.655235
37.328873
19.823807
1.682968
-16.107895
-32.785294
-48.096466
-62.379623
-76.151947
-89.622070
-102.270081
-112.978271
-120.354889
-123.360168
-121.707947
-115.911621
-107.028015
-96.213409
-84.505249
-72.794495
-61.947021
-52.936401
-46.693665
-43.951050
-44.820007
-48.624390
-54.012207
-59.362061
-63.352112
-65.343262
-65.429321
-64.236816
-62.569458
-61.083069
-60.206543
-60.222534
-61.370667
-63.871338
-67.867188
-73.308289
-79.898010
-87.227722
-94.906372
-102.783997
-111.050964
-120.189758
-130.738708
-143.102539
-157.198730
-172.330322
-187.214355
-200.244507
-209.869629
-215.067017
-215.591553
-211.950806
-205.214233
-196.664795
-187.445679
-178.465820
-170.295044
-163.255493
-157.459839
-152.829712
-149.073486
-145.816406
-142.648682
-139.281738
-135.609985
-131.682251
-127.681763
-123.856934
-120.363281
-117.231567
-114.312500
-111.294556
-107.828491
-103.689209
-98.795532
-93.254517
-87.209106
-80.735107
-73.791870
-66.427612
-58.833374
-51.500061
-45.134216
-40.480835
-38.096008
-38.212524
-40.615173
-44.664551
-49.303711
-53.115112
-54.533203
-52.211670
-45.341187
-33.964722
-18.901917
-1.536621
16.605347
34.136169
50.005127
63.435852
73.868896
80.973755
84.688171
85.276001
83.410522
79.984314
75.922913
71.984924
68.596313
65.887512
63.860718
62.388794
61.429443
60.887817
60.643616
60.424805
59.878662
58.610840
56.297821
52.768890
48.039490
42.335938
36.012726
29.494354
23.163757
17.304932
11.964203
6.912018
1.722870
-4.134644
-11.035675
-19.067810
-27.830780
-36.442719
-43.549927
-47.665436
-47.530457
-42.532257
-32.992920
-20.095215
-5.566895
8.870605
21.948212
33.020355
41.929535
48.693573
53.312866
55.677399
55.792297
53.926422
50.740250
47.094528
43.807770
41.425949
40.129227
39.844315
40.288452
41.144897
42.089279
42.766937
42.846268
42.014954
40.069565
36.906708
32.603409
27.247276
21.071632
14.293846
7.194244
0.107773
-6.688484
-13.025635
-18.919388
-24.388191
-29.306915
-33.300140
-35.841801
-36.657597
-36.022022
-34.830463
-34.164833
-34.748718
-36.363129
-37.834389
-37.488274
-33.943188
-26.760147
-16.641632
-5.052673
6.403133
16.573727
24.923424
31.417953
36.175835
39.256050
40.587898
40.180527
38.201530
35.238266
32.037849
29.424232
27.983383
27.944153
29.103348
30.949371
32.899521
34.491470
35.485489
35.845551
35.653458
34.985123
33.789978
31.924622
29.195358
25.516983
20.956375
15.815643
10.473679
5.293213
0.465042
-4.029587
-8.429688
-13.090591
-18.395935
-24.525482
-31.313354
-38.097992
-43.784302
-47.086273
-46.941559
-42.841705
-35.065369
-24.556519
-12.588409
-0.353271
11.261993
21.764740
30.881042
38.457855
44.365204
48.550323
51.070374
52.203308
52.347534
51.968414
51.472473
51.164703
51.164124
51.497223
52.097565
52.835052
53.508057
53.839508
53.495361
52.113159
49.408325
45.185089
39.420105
32.258606
23.931763
14.783325
5.237823
-4.144623
-12.683472
-19.682831
-24.638123
-27.416016
-28.343842
-28.129120
-27.642822
-27.681519
-28.769867
-30.950134
-33.753937
-36.164307
-36.889832
-34.694702
-28.889069
-19.580170
-7.735596
5.176788
17.679077
28.744904
37.876465
44.959076
49.988861
52.857849
53.462830
51.916321
48.730927
44.790833
41.075928
38.278748
36.575134
35.652496
34.898956
33.771515
31.984741
29.624756
26.981049
24.400665
22.148346
20.362061
19.055695
18.094513
17.209717
16.059204
14.276672
11.730225
8.530823
5.093750
1.869202
-0.887146
-3.353607
-6.018799
-9.478729
-14.099518
-19.799744
-26.064423
-32.122742
-37.157166
-40.474762
-41.608032
-40.362854
-36.818726
-31.363281
-24.568207
-17.121246
-9.678833
-2.843994
2.929321
7.217468
9.768585
10.574371
10.036591
8.900360
8.085571
8.319305
9.893188
12.586670
15.843842
19.099304
22.044617
24.694397
27.327515
30.244781
33.682648
37.777832
42.665466
48.496948
55.337006
62.794586
69.846741
74.728851
75.314117
69.652252
56.619568
36.221558
9.588196
-21.357910
-54.412872
-87.304413
-117.695374
-143.099243
-161.036774
-169.517853
-167.721222
-156.532227
-138.462250
-117.032166
-95.538055
-76.300659
-60.246521
-47.140503
-36.225403
-26.850159
-18.744568
-11.921204
-6.317017
-1.526062
3.052063
8.006836
13.728149
20.270203
27.465271
35.003723
42.619263
50.120239
57.566162
64.846619
71.549072
77.015259
80.609314
82.003235
81.397949
79.553894
77.567078
76.835266
77.925659
80.344116
82.945435
84.747559
85.399719
85.269714
85.201904
86.095825
89.447388
95.710693
104.170288
113.499176
122.621155
131.012268
138.651733
145.968323
153.824158
164.695251
179.896790
198.581055
217.880676
233.841461
242.331940
239.979126
225.188507
198.827332
165.751312
130.646545
96.301666
63.523529
32.281647
2.557709
-25.347931
-50.750336
-83.755066
-124.623627
-165.518066
-196.964005
-215.075516
-221.632797
-220.275131
-214.019791
-204.785660
-193.655182
-179.708054
-163.347214
-146.585449
-131.858826
-120.447540
-112.062111
-105.448441
-99.369545
-92.720070
-83.609192
-71.726120
-58.468105
-45.850483
-35.239868
-26.941879
-20.549923
-15.879320
-12.379744
-8.746128
-4.585917
-0.318300
3.244707
5.737045
7.381519
8.699112
9.568623
10.309559
11.611492
13.681969
16.209869
18.608620
20.499420
21.749702
22.398888
21.597603
19.246086
15.502792
10.327156
3.495506
-5.365662
-16.515572
-30.163063
-40.808937
-48.872803
-54.998825
-59.580093
-62.697327
-64.297272
-64.363480
-62.952194
-60.200165
-56.281570
-52.230743
-48.278412
-44.432922
-40.655777
-36.945221
-33.327393
-29.817459
-26.412491
-23.070953
-20.331680
-18.108337
-16.192612
-14.391800
-12.598221
-10.847809
-9.200912
-7.722549
-6.394424
-5.549957
-5.034668
-4.583359
-4.000381
-3.214111
-2.388657
-1.784256
-1.633789
-2.011780
-2.937866
-4.052078
-4.905762
-5.159653
-4.786301
-4.207794
-4.024292
-4.783936
-6.694458
-9.531555
-12.583908
-15.019119
-16.276581
-16.326385
-15.882523
-16.018524
-17.677231
-21.224823
-26.219009
-31.559128
-36.033600
-39.290573
-40.904129
-41.550964
-42.391373
-44.524353
-48.796631
-55.769745
-65.457779
-76.949158
-87.932404
-94.737396
-93.461243
-81.638046
-59.821472
-32.088638
-4.810524
15.800079
26.144791
26.271927
19.287682
9.134117
-1.167831
-10.522552
-19.109573
-27.262955
-34.441856
-39.296364
-40.409599
-37.179123
-30.418911
-21.283272
-11.139652
-0.886131
9.322624
19.748554
30.622541
41.764969
52.473785
61.648766
68.151230
71.143036
70.355179
66.182747
59.615074
51.931873
44.255775
37.319992
31.335545
26.088848
21.262394
16.712311
12.654533
9.467201
7.500000
6.804253
7.127480
7.939526
8.636696
8.916496
8.763412
8.422325
8.294197
8.687263
9.655960
10.952286
12.156242
12.774368
12.753670
12.215118
11.395905
10.459259
9.397026
7.846474
5.265579
1.084198
-5.023331
-12.463264
-20.257187
-27.195114
-32.166870
-34.459976
-33.920258
-30.868134
-25.833633
-19.410339
-11.349152
-1.215332
11.576141
27.789520
48.342072
74.165604
105.844688
143.337738
181.385681
214.891068
238.888840
250.187744
248.616364
237.134079
220.517929
203.355530
188.249039
175.127319
162.669830
148.927826
132.594513
113.323975
91.363106
66.982788
40.275249
11.459534
-18.740555
-48.532665
-75.985352
-99.654633
-119.106003
-135.058426
-149.023117
-162.657471
-177.092438
-192.533218
-207.905594
-221.566467
-231.844238
-237.439697
-237.588104
-231.728775
-219.162384
-198.893311
-170.101044
-132.834320
-88.958443
-42.277889
2.227242
39.835640
67.523010
84.646004
92.551270
93.582336
89.937744
83.098999
73.952408
63.406162
52.895119
44.343300
39.547974
39.319084
42.923851
48.125061
51.818619
51.120781
44.293610
31.190010
13.071377
-8.067665
-30.254303
-51.969460
-72.241966
-90.464050
-106.316315
-119.787338
-131.400681
-142.201813
-153.311707
-165.031281
-176.097397
-183.480530
-183.114822
-171.353424
-146.593826
-110.243652
-66.497650
-21.120192
20.214216
53.376541
76.433441
89.503471
94.063683
92.211212
86.084251
77.694153
68.802750
60.907158
55.043343
51.636074
50.337795
50.235249
50.161552
49.311954
47.535049
45.419559
43.928864
43.849754
45.360344
47.871773
50.259533
51.378788
50.513489
47.682648
43.581024
39.294220
35.879868
33.946259
33.474945
33.901909
34.394943
34.203552
32.956276
30.776070
28.184006
26.011345
25.178085
26.589554
30.877693
38.138298
47.696312
58.137177
67.548340
74.088898
76.454262
74.232147
67.746880
57.753448
45.099285
30.577385
14.999981
-0.638565
-15.200783
-27.501812
-36.652962
-42.295559
-44.733444
-44.725815
-43.282238
-41.249191
-39.160805
-37.150127
-35.171280
-33.154724
-31.252060
-29.843859
-29.371618
-30.113670
-32.053528
-34.892784
-38.226181
-41.733650
-45.309746
-49.061924
-53.194447
-57.855919
-63.075066
-68.617142
-73.920990
-78.136574
-80.244850
-79.335266
-75.043991
-67.703461
-58.325878
-48.168732
-38.268463
-29.094769
-20.632511
-12.559380
-4.668903
3.044910
10.454929
17.501934
24.193760
30.562698
36.475731
41.606800
45.574383
48.171162
49.541531
50.147282
50.553692
51.084282
51.712929
52.129761
51.850960
50.447788
47.598801
43.148117
37.057823
29.421303
20.438835
10.458717
-0.050400
-10.606743
-20.765442
-30.214340
-38.701736
-45.932320
-51.518188
-54.908401
-55.578453
-53.154533
-47.666985
-39.570473
-29.706581
-19.057503
-8.600403
0.862816
8.671074
14.306152
17.411842
17.871140
15.925957
12.185516
7.534271
2.917030
-0.849678
-3.287834
-4.263474
-3.896996
-2.539680
-0.612625
1.451180
3.249481
4.350830
4.335938
2.868179
-0.268097
-4.957657
-10.791534
-17.124374
-23.375153
-29.350662
-35.312332
-41.771698
-49.112381
-57.271683
-65.566498
-72.916031
-78.048721
-79.888962
-77.657242
-70.982346
-59.936050
-45.154678
-27.810379
-9.473679
8.184601
23.728516
36.160858
44.955719
50.014313
51.523529
49.973587
46.098526
40.957993
35.736191
31.511566
29.011566
28.434433
29.460510
31.408630
33.533020
35.216980
36.166107
36.333862
35.775909
34.477020
32.232361
28.774139
23.891388
17.706940
10.622833
3.223175
-4.079407
-11.223755
-18.510956
-26.413055
-35.188721
-44.515442
-53.445374
-60.443054
-63.801819
-62.072968
-54.559052
-41.464630
-23.948853
-3.786530
17.035583
36.616577
53.412140
66.253967
74.365753
77.478210
75.944916
70.757843
63.423645
55.545563
48.404358
42.615234
38.157654
34.625854
31.607330
28.930542
26.649719
24.900879
23.657715
22.605560
21.226532
19.013855
15.607147
10.970154
5.316681
-1.003876
-7.612122
-14.291290
-21.107208
-28.338745
-36.420410
-45.757385
-56.495514
-68.384369
-80.621399
-91.873810
-100.407898
-104.512970
-102.938599
-95.387299
-82.662781
-66.474152
-48.933472
-31.890259
-16.609650
-3.710815
6.497894
13.929138
18.394897
19.623993
17.543488
12.536987
5.433533
-2.603271
-10.478668
-17.468292
-23.180115
-27.667175
-31.419037
-35.211060
-39.837555
-45.828552
-53.255310
-61.812988
-71.046021
-80.228149
-89.082458
-97.951691
-107.602539
-118.736359
-131.373138
-144.713806
-157.407532
-168.072937
-174.208069
-173.797546
-165.990112
-151.612976
-133.144653
-113.960205
-97.218384
-84.902100
-76.987061
-68.285950
-52.244446
-23.908936
17.306458
67.119446
118.424927
164.267883
200.020386
224.186523
242.544739
261.916321
286.523560
315.637024
344.728455
368.887817
385.874695
396.699219
404.528198
419.186584
449.833679
501.841675
574.579590
662.288574
757.216370
852.128784
941.151917
982.230957
943.892883
815.792542
618.495300
392.964722
178.010742
-4.259460
-148.624695
-259.894714
-346.017548
-408.187134
-445.886536
-459.903717
-455.207642
-440.349945
-423.926697
-411.404907
-404.417267
-401.717346
-396.098206
-380.982849
-353.512726
-316.316345
-276.105591
-239.929443
-212.217209
-194.007019
-184.083832
-177.390640
-169.122162
-156.460526
-139.585449
-120.873474
-103.125992
-88.089584
-76.228683
-67.219284
-59.122681
-50.344772
-40.432129
-30.363022
-21.793320
-15.952682
-12.928368
-11.913658
-11.813828
-11.373283
-9.869789
-7.180405
-3.663483
0.266037
4.135002
7.572826
10.143227
11.307224
10.612774
8.015282
4.211739
-0.111107
-3.878113
-6.364048
-7.473204
-7.841599
-8.648664
-10.960279
-15.350462
-21.701111
-29.323160
-37.205215
-44.599876
-51.015373
-56.120171
-59.759163
-61.748940
-61.896648
-60.285793
-57.331154
-53.778122
-50.536713
-48.119537
-46.166908
-43.546547
-38.865555
-31.573992
-22.759754
-14.964068
-11.060780
-12.768401
-19.351061
-27.595829
-33.497715
-33.975006
-28.475189
-18.989645
-8.574627
0.120476
5.688209
7.907524
7.118308
4.093714
0.792875
0.287137
5.983384
20.000532
41.464420
65.971283
87.200096
99.489830
100.142822
90.319351
73.840591
54.856712
36.256973
19.085022
3.616763
-9.500765
-18.767603
-22.645164
-20.902622
-15.322086
-9.159957
-5.516038
-5.927612
-9.544533
-13.783407
-16.076166
-15.346704
-12.650471
-10.375616
-10.799267
-14.741343
-21.412630
-28.927916
-35.530373
-40.420540
-44.023212
-47.447510
-51.511864
-56.242477
-60.879753
-64.283569
-65.450912
-63.733284
-59.022484
-50.544228
-38.844051
-25.122818
-11.029816
1.759418
11.939034
18.749687
22.055637
22.188019
19.698910
15.057541
8.839203
1.666298
-5.774216
-12.819168
-18.932693
-23.709053
-26.943077
-28.605705
-28.965019
-28.321159
-27.024399
-25.384117
-23.636253
-21.842667
-19.986671
-18.065292
-16.274216
-15.041039
-14.766129
-15.641754
-17.584671
-20.385880
-23.928314
-28.273071
-33.613373
-39.915649
-46.718216
-52.845932
-56.883530
-57.465347
-53.939499
-46.455292
-35.881241
-23.348831
-10.000854
3.218948
15.481506
26.025864
33.990540
38.609024
39.478287
36.984680
32.357025
27.555176
24.436340
24.167542
26.747345
31.169891
36.078033
40.374847
43.593384
45.684357
46.662445
46.349915
44.431274
40.836273
35.918427
30.497284
25.270416
20.600311
16.138458
11.249939
5.317017
-1.854248
-9.992462
-18.351440
-25.822510
-31.049072
-32.709564
-29.806641
-22.128174
-10.381866
3.885437
18.837677
32.753510
44.496399
53.350006
59.056213
61.541321
61.014679
57.992249
53.279816
47.819092
42.446289
37.671997
33.658142
30.362946
27.689514
25.456970
23.533936
21.690125
19.675293
17.279602
14.407745
11.087952
7.435242
3.533905
-0.627350
-5.126068
-10.056793
-15.524750
-21.580353
-28.258026
-35.522705
-43.230164
-50.991730
-58.131073
-63.681793
-66.599731
-65.987213
-61.377777
-52.913055
-41.371429
-27.964417
-14.022400
-0.655945
11.437622
21.961365
30.846130
38.130920
43.788025
47.735901
49.924255
50.402039
49.425659
47.459839
45.130005
43.086670
41.876160
41.776245
42.745789
44.537842
46.727905
48.926514
50.822327
52.156311
52.633667
51.953247
49.904663
46.514648
42.092468
37.058044
31.702454
26.030151
19.708984
12.384155
3.978271
-5.019531
-13.602539
-20.359375
-23.954895
-23.403259
-18.365356
-9.229614
2.992676
16.903137
31.049683
44.154236
55.357239
64.185486
70.501892
74.451721
76.343506
76.673401
76.023865
74.943481
73.806091
72.819885
71.973602
71.159485
70.246887
69.076294
67.426971
65.028351
61.540802
56.801422
50.962280
44.523773
38.203400
32.535492
27.602173
23.041626
18.460327
13.780609
9.321594
5.383728
1.634094
-3.200989
-10.942505
-23.070923
-39.636200
-58.862793
-77.740051
-93.246674
-103.601532
-108.662964
-109.474609
-107.261963
-102.722870
-95.869568
-86.555176
-75.115295
-62.571625
-50.410858
-40.054413
-32.431946
-27.782318
-25.798431
-25.856018
-27.106964
-28.591339
-29.256622
-28.275787
-25.336197
-20.763397
-15.333832
-9.930954
-5.163055
-1.244812
1.866608
4.188126
5.555298
5.745346
4.689789
2.700912
0.413239
-1.572754
-3.019302
-4.226639
-5.900391
-8.799561
-13.324661
-19.377731
-26.252213
-32.871094
-37.978210
-40.364548
-39.224960
-34.241470
-25.815491
-14.971970
-3.188217
7.965027
17.211014
23.939423
28.252838
30.697525
31.940536
32.247375
31.366409
28.698517
23.839783
17.097382
9.706421
3.540070
0.403183
1.378647
6.555069
15.183983
26.167503
38.396812
50.832016
62.396164
71.979538
78.579124
81.742691
81.837059
79.960968
77.395889
74.973335
72.793304
70.486389
67.776741
65.012054
62.988934
62.304043
62.661144
62.777954
60.937355
56.166004
49.053967
41.728241
36.916500
36.570934
40.712852
47.349270
53.293213
55.493900
52.123425
43.096573
29.670387
13.918076
-1.862610
-15.606255
-25.862160
-32.185310
-35.651230
-38.983475
-46.116257
-60.928436
-85.708038
-119.892044
-159.961014
-200.383331
-235.417252
-260.712097
-274.377869
-276.955872
-270.867310
-259.457672
-246.027847
-233.093613
-221.794968
-211.634979
-200.748169
-186.388336
-165.989883
-138.253433
-103.909714
-65.871567
-28.747238
2.403137
23.452026
32.619263
31.342209
24.272537
18.026688
19.066788
31.191727
53.928818
82.563461
109.903748
129.035675
135.810822
130.005371
114.749283
94.728973
74.306549
56.270195
41.831947
31.232651
24.404976
21.148834
20.928909
22.477982
24.071457
23.930702
21.063087
15.612427
8.786903
2.167770
-3.059483
-6.627060
-9.108562
-11.457615
-14.381176
-18.015263
-21.908691
-25.378876
-27.949539
-29.546856
-30.488256
-31.400892
-32.952110
-35.838478
-40.631573
-47.610897
-56.585602
-66.689476
-76.410767
-83.825043
-87.034843
-84.738609
-76.797005
-64.519890
-50.417458
-37.495667
-27.987522
-22.380432
-19.004314
-14.773884
-6.456535
7.934891
28.540577
54.033409
82.411003
111.590828
139.480103
163.598785
181.049072
189.170593
186.709030
174.869751
157.354614
139.075012
124.351624
115.341278
111.619919
111.073456
111.221443
110.333733
107.802589
103.627159
97.783005
89.869713
79.312393
65.794037
49.602348
31.573700
12.759811
-6.159180
-25.052727
-44.239563
-64.048576
-84.402077
-104.538292
-122.976952
-137.701447
-146.595032
-147.992310
-141.226151
-127.011932
-107.431274
-85.478172
-64.196671
-45.862915
-31.633957
-21.738537
-16.062401
-14.510334
-16.992535
-22.900383
-30.756927
-38.205360
-42.668053
-42.212616
-36.370243
-26.157578
-13.638020
-1.191154
9.089226
15.746746
17.986599
15.758770
9.805653
1.694038
-6.383362
-11.943123
-12.949379
-8.340645
1.610260
15.281303
30.060795
43.080784
51.976318
55.534908
53.956566
48.589020
41.132530
32.953995
24.586906
15.986801
7.040176
-1.946831
-10.225296
-16.971619
-21.771027
-24.755554
-26.432999
-27.336479
-27.849907
-28.307236
-29.325638
-31.862526
-37.076035
-45.788307
-58.036972
-72.796677
-88.226341
-102.054260
-112.128113
-116.850883
-115.443344
-108.225906
-96.522125
-82.391266
-67.989426
-54.993622
-44.300858
-35.972122
-29.658035
-24.869568
-21.361633
-19.026047
-17.945602
-18.213409
-19.828705
-22.564682
-25.957794
-29.249390
-31.380981
-31.139221
-27.326996
-19.069473
-6.063248
11.245087
31.613373
53.137390
73.469757
90.401703
102.350861
108.845520
110.541077
108.904999
105.575195
101.816101
98.233734
94.792572
91.133240
86.798859
81.508698
75.116211
67.560577
58.859924
49.108582
38.662506
28.102386
18.198792
9.653412
2.929718
-1.939026
-5.319122
-7.864410
-10.340607
-13.337006
-17.238251
-22.161499
-28.048676
-34.741364
-41.896362
-48.913757
-54.824921
-58.410370
-58.472076
-54.213593
-45.525879
-33.064972
-18.001251
-1.611450
15.013824
31.102661
46.042969
59.213440
69.932404
77.542633
81.697479
82.505127
80.556244
76.702332
71.791107
66.482025
61.250763
56.441742
52.443420
49.712921
48.669708
49.513977
52.062195
55.659180
59.365845
62.227753
63.589691
63.229156
61.312317
58.166534
54.067932
49.147003
43.463654
37.023529
29.913239
22.300568
14.612152
7.587585
2.399902
0.432281
2.881073
10.147278
21.563934
35.466400
49.652863
62.106842
71.440857
77.019501
78.697510
76.521362
70.525940
60.801788
47.634491
31.519348
13.242950
-6.309753
-26.197998
-45.420471
-62.864441
-77.365112
-87.797363
-93.311829
-93.639648
-89.151764
-80.870209
-70.308044
-59.088669
-48.709259
-40.266373
-34.379532
-31.186188
-30.514496
-31.922974
-34.904831
-38.993652
-43.817810
-49.176804
-54.962616
-60.997711
-66.887375
-71.958160
-75.338684
-76.211121
-74.087311
-68.943130
-61.307587
-52.030151
-42.083069
-32.315781
-23.462814
-16.071198
-10.684189
-7.778687
-7.626450
-10.195984
-15.034042
-21.316895
-28.128616
-34.642685
-40.317917
-44.839737
-48.068893
-49.855209
-50.066101
-48.674805
-45.919006
-42.344391
-38.712753
-35.726929
-33.885696
-33.352524
-34.004288
-35.580231
-37.783783
-40.367935
-43.196701
-46.248016
-49.697327
-53.798615
-58.801483
-64.698822
-71.008148
-76.580872
-79.629852
-78.078827
-70.186676
-55.208221
-33.860657
-8.241669
18.753876
44.307770
66.403168
84.164215
97.617615
107.216858
113.412689
116.571564
117.118530
115.835938
113.809174
112.138885
111.355835
111.124481
110.237579
107.110260
100.454041
89.829987
75.862183
60.066437
44.190094
29.758972
17.611450
7.900787
0.258759
-5.808319
-10.692017
-14.543732
-17.382233
-19.255066
-20.439972
-21.561310
-23.570618
-27.470428
-33.911011
-42.708557
-52.683716
-61.775116
-67.592834
-68.096802
-62.169250
-49.796936
-31.938751
-10.056396
14.216187
39.407532
64.327301
88.267090
111.073822
133.046478
154.494354
175.137848
193.580353
207.440277
214.097992
211.832245
200.599670
182.168365
159.307953
134.645569
109.786560
85.169403
60.631287
36.251556
12.788513
-8.497009
-26.599945
-41.297852
-53.312897
-63.679138
-72.964508
-80.834137
-86.296021
-88.467072
-87.408081
-84.356384
-81.171478
-79.321228
-79.160980
-79.793365
-79.777344
-77.987869
-74.168900
-68.805374
-62.580872
-55.861588
-48.757690
-41.515533
-35.051117
-30.938705
-30.839188
-35.588562
-44.661026
-56.144333
-67.461502
-76.348145
-81.524872
-82.837662
-80.934082
-76.616547
-70.383759
-62.311234
-52.168427
-39.770584
-25.255325
-9.207626
7.430664
23.542526
38.030212
50.063889
59.185394
65.441437
69.367310
71.834473
73.772736
75.873962
78.400742
81.158371
83.677734
85.438019
86.033386
85.291656
83.245667
80.220467
76.782776
73.704468
71.698898
71.201408
72.025681
73.292999
73.608200
71.478096
65.795738
56.180984
43.050018
27.435188
10.656254
-5.979282
-21.459927
-35.182415
-46.933952
-56.734833
-64.694283
-70.803574
-74.963287
-77.115768
-77.373016
-76.118477
-73.931290
-71.443214
-69.120941
-67.112129
-65.285797
-63.321579
-60.942780
-58.024033
-54.753937
-51.558887
-49.055485
-47.888397
-48.531361
-51.146618
-55.473209
-60.866096
-66.432571
-71.155487
-74.068512
-74.374069
-71.680763
-66.028267
-57.953960
-48.363720
-38.184807
-28.144497
-18.647507
-9.817265
-1.725071
5.458717
11.494724
16.244411
19.914146
23.145493
26.764919
31.437683
37.372795
44.235573
51.335342
57.998962
63.707176
68.177711
71.184364
72.436195
71.544823
68.177261
62.206223
53.765915
43.203506
30.955261
17.476006
3.287651
-10.905624
-24.136353
-35.227493
-43.088150
-47.005714
-46.933434
-43.418831
-37.383926
-29.791100
-21.424019
-12.873268
-4.731644
2.147629
6.623421
7.427315
3.668022
-4.745255
-16.860657
-30.804558
-44.309868
-55.315147
-62.451584
-65.248535
-64.020561
-59.647514
-53.275215
-46.013748
-38.580490
-31.144264
-23.137550
-13.510849
-1.217247
14.223122
32.332817
51.715080
70.698418
88.069435
103.513275
117.576340
130.927094
143.586243
154.478302
161.790115
163.868591
160.143768
151.434021
139.465530
125.990440
111.755104
96.193146
77.888885
55.309647
27.371750
-6.314041
-45.422806
-88.553802
-132.563797
-172.310013
-201.428253
-214.215790
-208.119614
-185.253479
-151.952515
-116.407761
-85.629456
-63.254593
-49.477554
-42.674042
-41.422714
-45.616730
-55.927994
-72.289581
-92.727020
-113.349731
-129.822083
-139.249115
-141.501984
-139.158676
-136.298920
-136.502869
-141.235229
-149.407135
-157.962280
-163.218506
-162.169769
-153.005707
-135.180176
-109.275093
-77.072586
-41.719215
-7.729248
19.934715
37.407677
43.626270
41.087143
34.929420
30.609848
31.481613
37.519772
45.901581
53.106529
57.204010
58.818138
60.446907
64.536362
71.800140
80.691963
88.432663
92.634903
92.806503
90.511040
88.386475
88.585510
91.648743
96.406265
100.983047
104.049881
105.383934
105.570656
104.983337
102.981598
98.116531
89.136963
76.242447
61.598770
48.700119
40.902802
39.975189
45.528915
55.470306
67.094070
77.950531
86.104401
90.024612
88.391953
80.457123
66.605347
48.758209
29.981537
13.502335
1.575928
-5.132172
-7.448715
-6.891037
-4.917297
-2.330231
0.672745
4.082870
7.699814
10.967514
13.146561
13.706749
12.656143
10.595337
8.478653
7.109909
6.720978
6.887321
6.736954
5.436882
2.600494
-1.566406
-6.531090
-11.757584
-16.973854
-21.942932
-26.247284
-29.069267
-29.461952
-26.863770
-21.529427
-14.636261
-7.851807
-2.654667
0.183125
0.703529
-0.664234
-3.531429
-7.820602
-13.539963
-20.331036
-27.132492
-32.325874
-34.319527
-32.323174
-26.728527
-19.002569
-11.031365
-4.374998
0.263975
3.043167
4.565414
5.383226
5.688822
5.322740
4.118600
2.155578
-0.141973
-2.174563
-3.430326
-3.714151
-3.203026
-2.295902
-1.410397
-0.829521
-0.601032
-0.644043
-0.820618
-1.082859
-1.485195
-2.145237
-3.185604
-4.677113
-6.601231
-8.872410
-11.389645
-14.086399
-16.848297
-19.553352
-22.059898
-24.267025
-26.181450
-27.893314
-29.509514
-30.987751
-31.981976
-31.909817
-30.145847
-26.293415
-20.356171
-12.770981
-4.229057
4.503708
12.739250
19.918610
25.580345
29.320618
30.906937
30.318634
27.843193
24.024010
19.590256
15.278381
11.716393
9.260223
7.984436
7.704948
8.066574
8.655647
9.184433
9.511795
9.613182
9.471771
8.975334
7.922310
6.116341
3.456871
0.056053
-3.830864
-7.857208
-11.763664
-15.416290
-18.815399
-22.054909
-25.266129
-28.540009
-31.935852
-35.367966
-38.649605
-41.389671
-43.039749
-42.983208
-40.776375
-36.257751
-29.712669
-21.789696
-13.350609
-5.249832
1.890488
7.707268
12.039200
14.799232
15.931435
15.415131
13.369125
10.159386
6.350937
2.638680
-0.410294
-2.498070
-3.642586
-4.045578
-3.963547
-3.575851
-2.892212
-1.859871
-0.410469
1.390633
3.301338
4.963554
6.021919
6.254562
5.705765
4.734650
3.815506
3.378342
3.520752
3.972099
4.163078
3.494904
1.605522
-1.430740
-5.119064
-8.690971
-11.331474
-12.310333
-11.138100
-7.642517
-2.022804
5.167328
13.059319
20.620560
26.824821
30.891556
32.425865
31.457748
28.405106
23.974564
19.011658
14.375801
10.718254
8.387611
7.287399
6.907288
6.473450
5.203308
2.591400
-1.370667
-6.244186
-11.313019
-15.925598
-19.753693
-22.907654
-25.769012
-28.798874
-32.224579
-35.960602
-39.614777
-42.579529
-44.164154
-43.764938
-41.018494
-36.002335
-29.286957
-21.905273
-14.980698
-9.389801
-5.367722
-2.493805
0.134460
3.420807
7.962952
13.792709
20.488632
27.315750
33.470924
38.276382
41.177925
41.771652
39.713455
34.665833
26.351852
14.838196
0.927765
-13.583382
-25.925323
-33.124657
-32.857315
-24.566055
-9.796783
8.088348
24.995438
37.296829
42.773483
41.058304
33.402916
22.197517
10.250099
0.124878
-6.430161
-8.830086
-7.710976
-4.686127
-1.740822
-0.642395
-2.460640
-7.526917
-15.549675
-25.835594
-37.519226
-49.564209
-60.795441
-70.010498
-76.243401
-78.999451
-78.232063
-74.158974
-66.816864
-55.927094
-40.981346
-21.871002
0.430176
23.463928
43.716850
57.707138
63.394432
61.083977
53.357735
43.965424
36.350319
32.339935
31.866409
33.498222
35.520187
36.759331
36.930298
36.263435
35.000160
32.946793
29.561333
24.374138
17.398567
9.313881
1.240692
-5.756920
-11.066948
-14.788177
-17.583282
-20.376999
-23.860970
-28.225449
-32.979897
-37.076942
-39.166275
-38.073395
-33.120110
-24.436188
-12.958954
-0.232048
12.025757
22.282166
29.471657
33.093475
33.197914
30.404266
25.826759
20.909325
17.123238
15.501526
16.357712
19.157631
22.837906
26.222672
28.491287
29.303146
28.714462
26.880089
23.799065
19.319038
13.353821
6.046272
-2.095955
-10.340134
-18.005768
-24.716667
-30.520844
-35.879967
-41.442490
-47.745399
-55.080986
-63.537949
-73.135933
-84.001244
-96.339645
-110.097000
-124.607613
-138.373520
-149.305847
-155.301804
-154.988922
-148.136337
-135.647888
-119.154076
-100.237823
-80.026871
-59.160118
-38.135689
-17.800110
0.434343
14.860743
24.112284
27.826880
27.006691
23.701982
20.270109
18.568478
19.370651
22.418503
26.856335
31.831989
36.917431
42.129204
47.616173
53.254288
58.535675
62.667046
64.917229
64.996056
63.188950
60.247772
57.026207
54.084900
51.459183
48.689850
45.062973
39.988495
33.365662
25.649216
17.654282
10.415588
4.779526
1.384964
0.518829
2.116974
5.799698
10.941620
16.621124
21.863373
25.883179
28.453506
30.038239
31.626816
34.218094
38.242020
43.250366
48.004944
51.028671
51.300064
48.732819
44.154205
38.923157
34.310593
30.997009
28.986694
27.768402
26.716644
25.409332
23.717117
21.739822
19.637558
17.429855
14.955338
11.823807
7.714035
2.471313
-3.674637
-10.223236
-16.570557
-22.197906
-26.811493
-30.237610
-32.182114
-32.110260
-29.403351
-23.880981
-16.359283
-8.609543
-2.729004
-0.074692
-0.409271
-1.852859
-1.691940
2.286621
10.819183
22.902679
36.411606
49.063049
59.108505
65.562469
67.997040
66.380630
61.008881
52.697250
42.841705
33.118927
25.058517
19.484833
16.457642
15.325058
15.132065
14.945297
14.140350
12.432297
9.888046
6.740768
3.271576
-0.248962
-3.688614
-7.006729
-10.301193
-13.721390
-17.497406
-21.871170
-26.953415
-32.657700
-38.492691
-43.654510
-47.107864
-47.928879
-45.547012
-39.993576
-31.856766
-22.193665
-12.243958
-3.202988
3.994843
8.786133
11.104721
11.330048
10.102448
8.137939
5.980820
3.950684
2.261047
1.212006
1.309952
3.189713
7.294846
13.444443
20.656754
27.278549
31.594360
32.610641
30.572266
26.936127
23.690735
22.387970
23.343674
25.436768
26.638016
24.887268
18.965424
8.814789
-4.578278
-19.687714
-34.791840
-48.191681
-58.080650
-62.760147
-61.009033
-52.585281
-38.633644
-21.497353
-3.913681
12.177711
26.420586
40.041237
54.872406
71.788742
89.630730
105.178162
114.382538
114.092102
103.397415
83.860771
58.698364
31.463928
5.046715
-18.630730
-38.279835
-52.845619
-61.468193
-63.781864
-60.431225
-53.232655
-44.845276
-38.047600
-34.866550
-36.114536
-41.194992
-48.481705
-55.996078
-62.041359
-65.734375
-67.176392
-67.191116
-66.835548
-66.874847
-67.587830
-68.768311
-70.002556
-70.973473
-71.551033
-71.700645
-71.287361
-69.892197
-66.903427
-61.744919
-54.283005
-44.947742
-34.739632
-24.926971
-16.697254
-10.833530
-7.565422
-6.629295
-7.381676
-8.990013
-10.548779
-11.241692
-10.543045
-8.297096
-4.706184
-0.194611
4.727875
9.685913
14.361145
18.472427
21.647270
23.482742
23.713760
22.339859
19.725121
16.484856
13.407280
11.230713
10.439156
11.115257
12.926369
15.214684
17.212776
18.266991
18.069740
16.780289
14.944031
13.403137
13.114136
14.949860
19.469025
26.696655
36.049820
46.428223
56.519867
65.133682
71.490326
75.267151
76.412186
75.089066
71.592926
66.590012
61.131287
56.579544
54.155090
54.475006
57.248993
61.376167
65.442650
68.360115
69.868828
70.611763
71.846283
74.797531
80.064682
87.318420
95.372734
102.774391
108.518700
112.783897
117.002434
123.242645
132.899460
145.370483
157.406815
163.737808
158.602692
137.679016
99.554543
46.426117
-16.211884
-80.544807
-138.103806
-181.449692
-205.834198
-210.140808
-196.937546
-171.353302
-139.417679
-106.301491
-75.312248
-47.875526
-24.253906
-4.365501
11.799644
24.166916
32.640671
37.101395
37.309464
33.085587
24.693939
13.264145
0.765762
-10.548080
-18.986343
-23.973068
-26.208572
-26.948441
-27.401779
-28.085693
-28.896500
-29.611725
-30.480484
-32.583481
-37.705750
-47.735992
-63.810822
-85.610321
-111.072723
-136.634491
-158.159973
-171.967346
-175.776398
-169.053802
-152.755066
-128.744934
-99.345764
-67.064575
-34.592987
-4.651489
20.343231
38.892029
50.772064
57.063690
59.719543
60.932953
62.541321
65.829865
71.455811
79.607452
89.982224
101.771164
113.676285
124.095535
131.494690
134.950470
134.520523
131.229904
126.719116
122.636276
119.881226
118.144287
115.731079
109.955841
97.695404
76.201050
43.923828
1.487396
-47.907532
-98.518860
-143.339905
-175.945251
-192.575073
-193.291962
-181.602844
-162.956848
-142.695129
-124.480804
-109.959198
-99.203156
-91.541168
-86.154755
-82.336914
-79.320068
-76.175568
-71.818787
-65.299561
-56.086975
-44.396851
-31.230408
-18.398773
-7.929871
-1.365814
0.964600
0.171753
-1.570770
-2.081116
-0.136627
4.052826
9.201050
13.731018
16.611542
17.634399
17.245453
16.091736
14.617401
12.966675
11.175018
9.258911
7.482178
6.299225
6.254364
7.690674
10.555847
14.226501
17.753723
20.252014
21.398041
21.684692
22.389343
25.016968
30.757568
40.023895
52.314209
66.508057
81.273285
95.422882
108.202393
119.293213
128.814636
137.147430
144.744537
151.872101
158.513550
164.252716
168.592163
171.312622
172.727356
173.752289
175.726746
179.950287
187.156708
197.175629
208.880829
220.561462
230.346832
236.640930
238.214355
234.130188
223.490112
205.403748
179.267761
145.231140
104.606567
59.896912
14.049500
-30.338074
-71.755066
-109.992371
-145.753967
-180.272095
-214.971741
-251.609375
-291.988953
-337.143005
-385.838989
-433.720947
-473.617188
-497.596313
-500.054321
-480.164062
-442.384521
-394.617554
-345.037476
-299.250977
-259.256104
-224.349243
-193.047607
-164.698608
-139.753296
-118.985107
-102.421631
-88.855469
-76.350220
-63.328125
-49.379883
-35.400757
-23.089600
-13.944702
-8.494385
-6.119019
-5.362915
-4.721069
-3.251465
-0.847168
1.905029
4.110840
5.001587
4.243164
2.063843
-0.667114
-2.631470
-2.365967
1.267700
8.620361
19.056580
31.190552
43.418457
54.499573
63.925476
71.704895
78.057556
82.918274
85.899109
86.510620
84.638977
80.811890
76.176025
72.076599
69.530090
68.794067
69.393372
70.318359
70.681396
70.081421
68.825073
67.703674
67.486572
68.401794
69.943237
71.106201
70.962708
69.305542
66.898499
65.123474
65.380127
68.292297
73.419922
79.392090
84.573914
87.765015
88.747131
88.319580
88.086487
89.920532
95.498474
105.777466
120.719604
138.952698
157.783508
173.450195
182.093323
180.895813
169.225159
148.900818
123.509644
97.031677
72.462463
51.261841
33.891418
20.876221
13.598206
13.827515
22.188049
36.481628
51.205688
58.724304
51.999634
27.308960
-14.292969
-67.427612
-124.221191
-176.778687
-219.049072
-247.898682
-263.575195
-269.661987
-272.313599
-278.574219
-293.557495
-317.900391
-346.593384
-370.542969
-380.137085
-369.494263
-338.854614
-294.037598
-243.450928
-194.395752
-150.815063
-113.380859
-81.113647
-53.278198
-30.042969
-11.776733
2.040771
13.307739
24.689453
38.246094
54.273438
71.120605
85.955811
95.976074
99.740234
97.558960
91.264893
83.398804
76.309326
71.418823
68.968384
68.111694
67.418274
65.587585
62.008179
56.989868
51.564880
46.970093
44.002625
42.601990
41.919128
40.664734
37.806763
32.932617
26.352112
18.848816
11.246399
4.166809
-2.049500
-7.259827
-11.432495
-14.690857
-17.446838
-20.488525
-24.659546
-30.532898
-37.861023
-45.630005
-52.528320
-57.872375
-62.230103
-67.392517
-75.637695
-88.848816
-107.816162
-132.242859
-161.325195
-194.143555
-229.600830
-265.750488
-299.060486
-324.625305
-337.439941
-334.472290
-316.294861
-287.167603
-253.347351
-220.375305
-190.889160
-164.058472
-137.042603
-107.313416
-74.518585
-40.759003
-9.142578
18.148865
41.280182
62.350891
83.995117
107.539505
132.245087
155.831909
175.911774
191.379837
202.937302
212.451294
221.700134
231.346558
240.484055
247.221466
249.755997
247.355637
240.980591
233.055817
226.638062
224.370697
227.654694
236.307343
248.938507
263.621674
278.636108
292.811646
305.536133
316.316162
324.514008
329.231171
329.598755
325.185425
316.361725
304.324707
290.834991
277.642273
265.905212
255.800018
246.469833
236.331299
223.548279
206.453247
183.897461
155.309875
120.686440
80.436363
35.245453
-14.251526
-67.741760
-125.415588
-187.596161
-253.954330
-322.461761
-388.723694
-446.247437
-487.906860
-507.972229
-503.911102
-477.091797
-432.331940
-376.465210
-316.686249
-259.172729
-208.342545
-166.546143
-134.109619
-109.598175
-90.447968
-73.904022
-57.958862
-41.908081
-26.374695
-12.604218
-1.768707
5.693512
10.087891
12.185577
12.795135
12.566971
12.050766
11.834274
12.598877
14.945633
19.091980
24.610916
30.364014
34.883255
36.880615
35.772476
31.881836
26.333664
20.551880
15.665863
12.149994
9.778564
7.959732
6.160736
4.212158
2.281723
0.724319
-0.219696
-0.581528
-0.521500
-0.211075
0.492607
2.092262
5.253525
10.507538
17.991951
27.326485
37.740334
48.306732
58.152222
66.529663
72.818466
76.393768
76.737511
73.520912
66.822716
57.186409
45.679386
33.622829
22.455460
13.522762
7.741619
5.432915
6.208496
8.968342
12.287830
14.913368
16.175537
16.171057
15.595016
15.207169
15.512531
16.477987
17.643192
18.390507
18.243904
16.936768
14.369885
10.590567
5.647769
-0.406539
-7.421898
-15.219854
-23.372520
-31.222223
-37.812279
-42.179192
-43.542889
-41.658127
-36.907692
-30.136396
-22.376148
-14.448781
-6.909160
-0.167334
5.397270
9.316616
11.198374
10.933533
8.935831
5.910763
2.746532
0.089241
-1.678635
-2.473089
-2.356030
-1.521923
-0.227432
1.208847
2.420708
3.183506
3.405441
3.167721
2.636799
1.937916
1.084934
0.038395
-1.180775
-2.538696
-3.959457
-5.492004
-7.351875
-9.864403
-13.329712
-17.793098
-22.958824
-28.212883
-32.725655
-35.647667
-36.252533
-34.204475
-29.515045
-22.695007
-14.562187
-6.154724
1.537804
7.813919
12.355637
15.257751
16.815033
17.379250
17.178223
16.340851
14.976105
13.262985
11.480453
9.911621
8.745941
7.955215
7.334976
6.627472
5.650375
4.425110
3.118484
1.917496
0.885315
-0.099243
-1.344299
-3.209061
-5.939926
-9.649628
-14.212021
-19.376007
-24.809113
-30.352722
-35.912399
-41.658249
-47.771744
-54.280945
-60.857819
-66.801208
-71.127563
-72.698318
-70.387955
-63.254242
-50.862473
-33.616714
-12.989883
8.463074
27.723572
42.137695
50.332245
52.541199
50.373199
45.949524
41.057709
36.694031
33.058533
30.020477
27.515625
25.631134
24.450684
23.866821
23.531067
23.045319
22.297241
21.402069
20.785828
20.827332
21.656403
23.058960
24.617645
25.883026
26.586121
26.756500
26.687897
26.840332
27.680664
29.449615
32.181976
35.725494
39.914734
44.714417
50.314484
56.923828
64.680023
73.412567
82.615936
91.578339
99.627075
106.240021
111.161560
114.306305
115.655853
115.212738
113.040375
109.223114
104.029816
97.816986
91.023499
84.071716
77.306824
70.835266
64.529480
58.017548
50.765717
42.317627
32.466949
21.296509
9.036011
-4.281433
-18.955688
-35.483185
-54.083557
-74.244415
-94.489670
-112.801910
-127.290955
-136.970154
-142.002808
-143.513443
-142.860229
-141.170624
-139.027405
-136.746368
-134.573944
-132.774017
-131.424911
-130.181747
-128.151733
-124.009781
-116.339951
-104.036545
-86.534836
-64.209106
-38.411453
-11.367767
14.284302
36.150970
52.832642
64.238403
71.484772
76.231415
79.977936
83.466156
86.657928
89.046539
90.137390
89.766724
88.143555
85.641418
82.530884
78.832642
74.324310
68.570068
61.307953
52.493927
42.420013
31.607880
20.657867
10.017120
-0.125305
-9.778503
-19.023682
-27.834503
-35.984467
-43.092102
-48.764160
-52.783478
-55.197144
-56.377319
-56.810699
-56.948669
-57.067444
-57.235046
-57.379089
-57.357422
-56.962158
-55.856842
-53.596924
-49.748260
-43.988007
-36.289276
-27.048340
-17.097565
-7.543243
0.508301
6.309448
9.728943
11.317505
12.013641
12.784424
14.150116
16.051514
17.925446
19.167480
19.468933
19.046814
18.489288
18.427673
19.199615
20.808746
23.001953
25.487305
28.044861
30.578064
33.045685
35.421082
37.607849
39.386383
40.498199
40.692261
39.802399
37.871979
35.120850
31.875946
28.380615
24.716644
20.814209
16.601593
12.110107
7.606842
3.427490
-0.136597
-3.097961
-5.778687
-8.752502
-12.578003
-17.608368
-23.863983
-30.976990
-38.216919
-44.707520
-49.581238
-52.230774
-52.367371
-50.044220
-45.483826
-39.029205
-31.012299
-21.858612
-12.090881
-2.378479
6.564270
14.103851
19.806335
23.430756
24.964569
24.568176
22.599731
19.611816
16.391724
13.731750
12.271118
12.209198
13.300507
14.885986
16.265869
16.886505
16.496002
15.195251
13.281677
11.081238
8.865967
6.771240
4.823242
2.968079
1.148956
-0.736389
-2.749023
-4.963013
-7.392761
-10.010040
-12.694061
-15.324738
-17.763977
-19.967560
-21.932404
-23.732239
-25.497223
-27.413239
-29.584686
-31.993774
-34.380035
-36.265503
-37.014404
-36.065674
-33.062317
-28.036072
-21.387360
-13.743256
-5.838470
1.556610
7.748810
12.139740
14.384308
14.501007
12.945557
10.462219
7.947357
6.134552
5.456177
5.951019
7.415070
9.453705
11.689148
13.769287
15.453308
16.581085
17.136169
17.172180
16.833496
16.263611
15.583832
14.856415
14.130859
13.400848
12.646942
11.808136
10.817657
9.654236
8.384705
7.141083
6.034363
5.008514
3.819916
2.068878
-0.587311
-4.333832
-9.057068
-14.417725
-19.948608
-25.176849
-29.622284
-32.908600
-34.667542
-34.705811
-32.977875
-29.657684
-25.058960
-19.629425
-13.856598
-8.240448
-3.233429
0.794525
3.638336
5.261841
5.782745
5.423492
4.443268
3.156769
1.956635
1.276276
1.488434
2.779510
5.028534
7.824127
10.641388
13.004822
14.696198
15.694153
16.150177
16.223145
16.110229
15.938446
15.828278
15.816132
15.833221
15.729309
15.369965
14.682495
13.717224
12.568268
11.316589
9.936279
8.288300
6.110809
3.111053
-0.945465
-6.123627
-12.160248
-18.389923
-23.849976
-27.501984
-28.616882
-27.005463
-23.025360
-17.335114
-10.628418
-3.423401
3.948883
11.177521
17.823303
23.332458
27.165283
29.083374
29.221741
28.059570
26.160492
24.041840
21.933014
19.880402
17.826965
15.778656
13.882629
12.340088
11.351685
10.981476
11.125092
11.588501
12.175568
12.757019
13.185669
13.253662
12.701263
11.325867
9.190277
6.671204
4.343323
2.753632
2.064880
2.011627
1.994110
1.368195
-0.328796
-3.277252
-7.451050
-12.695251
-18.691498
-24.854309
-30.328766
-34.049622
-35.134888
-33.185333
-28.505127
-22.012939
-14.870880
-8.147491
-2.458252
2.082581
5.722565
8.855103
11.713623
14.301483
16.351440
17.545563
17.690460
16.914368
15.595276
14.229614
13.207703
12.697662
12.636536
12.861481
13.245544
13.709900
14.209717
14.636810
14.813354
14.557312
13.757050
12.427765
10.659637
8.578186
6.271393
3.804901
1.194153
-1.512695
-4.287964
-7.068665
-9.802155
-12.402344
-14.784424
-16.967682
-19.135986
-21.630371
-24.803284
-28.760254
-33.191193
-37.324829
-40.155121
-40.756561
-38.609344
-33.700287
-26.515472
-17.830170
-8.519379
0.592194
8.784760
15.497559
20.365204
23.221344
24.141113
23.443481
21.615509
19.270264
17.000717
15.271820
14.307800
14.106720
14.460846
15.133606
15.937363
16.794159
17.700104
18.631287
19.522873
20.227203
20.614304
20.564392
20.011154
18.905716
17.224487
14.953339
12.090195
8.743042
5.089310
1.387070
-2.114075
-5.218369
-7.894577
-10.292923
-12.711685
-15.537247
-19.101059
-23.471588
-28.371964
-33.140686
-36.845642
-38.544647
-37.545486
-33.552612
-26.750061
-17.746841
-7.444839
3.155640
13.079697
21.557846
28.112762
32.566025
35.062271
36.005768
35.914871
35.272461
34.424469
33.458191
32.224854
30.396957
27.599304
23.589249
18.422867
12.489197
6.481827
1.253082
-2.472565
-4.282639
-4.215576
-2.689438
-0.309189
2.350800
4.913666
7.255066
9.349991
11.163818
12.570953
13.395447
13.477356
12.805359
11.476929
9.649696
7.421402
4.738808
1.391151
-2.857643
-8.066162
-13.980515
-19.881767
-24.695389
-27.235954
-26.536255
-22.209038
-14.656242
-4.999535
5.208260
14.381851
21.286911
25.161682
25.713242
23.035858
17.532562
9.853676
0.933903
-8.154037
-16.383232
-22.992321
-27.663872
-30.502960
-31.880741
-32.232445
-31.870525
-30.938187
-29.451309
-27.446604
-25.011806
-22.332678
-19.641300
-17.158806
-15.107031
-13.637445
-12.820686
-12.673893
-13.137912
-14.096065
-15.363692
-16.740791
-18.003540
-19.043932
-19.800365
-20.363213
-20.932949
-21.773252
-23.111340
-25.098869
-27.645243
-30.433470
-32.910088
-34.448486
-34.467876
-32.615681
-28.795296
-23.117090
-15.873134
-7.477185
1.568850
10.597566
18.864098
25.640608
30.417009
33.024895
33.663929
32.742336
30.758284
28.135771
25.217251
22.271923
19.550522
17.239120
15.435739
14.078087
12.996727
11.984699
10.986986
10.087608
9.483436
9.288868
9.411381
9.511901
9.160283
7.894827
5.507127
2.077611
-2.064237
-6.461226
-10.693070
-14.522549
-17.983410
-21.217772
-24.420992
-27.656891
-30.857443
-33.882950
-36.534702
-38.656631
-40.022156
-40.360809
-39.248650
-36.256943
-31.070999
-23.701998
-14.534363
-4.258539
6.313021
16.423206
25.522379
33.298496
39.598694
44.328949
47.447746
49.012100
49.293991
48.785912
48.110809
47.776104
47.998966
48.573235
48.980614
48.740345
47.629684
45.874825
44.013943
42.595421
41.862434
41.615345
41.337654
40.318893
38.019627
34.125534
28.661438
21.944782
14.531410
7.050255
0.081291
-6.010971
-11.213737
-15.863472
-20.565453
-25.914864
-32.228470
-39.319031
-46.460785
-52.567276
-56.515656
-57.569252
-55.525375
-50.828300
-44.308517
-36.896614
-29.389687
-22.346138
-16.223320
-11.502701
-8.704323
-8.232300
-10.109772
-13.832779
-18.318695
-22.210968
-24.265656
-23.753830
-20.563675
-15.120468
-8.093735
-0.161652
8.126709
16.292999
23.848907
30.153046
34.497330
36.295425
35.292877
31.757050
26.417023
20.321152
14.573074
10.022369
7.113739
5.849365
5.861328
6.577087
7.357208
7.637314
7.092041
5.701111
3.848755
2.336029
2.251129
4.630371
10.135498
18.783234
29.969589
42.654282
55.683640
68.082153
79.195770
88.691406
96.531296
102.856720
107.989777
112.288940
115.999512
118.980194
120.531372
119.419464
114.116119
103.253693
86.197021
63.414978
36.544891
8.164825
-18.809937
-41.760468
-58.877136
-69.474823
-73.914764
-73.393921
-69.645691
-64.665497
-60.263184
-57.879211
-58.171509
-60.942200
-65.218414
-69.619751
-72.780182
-73.906372
-73.109192
-71.479645
-70.740875
-72.548920
-77.705963
-85.593170
-94.228851
-100.957886
-103.462189
-100.774628
-93.533691
-83.675629
-73.418121
-64.415009
-57.311920
-51.939880
-47.891724
-44.962769
-43.236877
-42.807068
-43.410278
-44.340759
-44.630188
-43.575623
-40.964233
-37.305298
-33.495789
-30.437561
-28.645874
-28.113525
-28.367188
-28.810883
-28.957306
-28.642487
-28.012085
-27.427521
-27.267242
-27.822723
-29.190826
-31.329956
-34.014465
-36.897766
-39.447235
-41.054962
-41.082336
-39.038391
-34.760315
-28.422913
-20.526276
-11.777313
-2.821686
5.861572
13.984741
21.303680
27.564575
32.360565
35.303436
36.175568
35.052368
32.289154
28.488525
24.418121
21.084900
19.577881
20.909790
25.624634
33.443054
43.144226
52.939758
61.082001
66.607269
69.650421
71.182922
72.327240
73.705200
75.135773
75.870117
75.135376
72.590851
68.509705
63.584869
58.498474
53.708832
49.388092
45.616577
42.462189
40.290863
39.464050
40.249237
42.666351
46.448578
51.172668
56.463409
61.947266
67.121399
71.153625
72.799011
70.716492
64.020203
52.731476
37.889313
21.081146
3.777618
-13.335602
-30.311707
-47.589996
-65.288330
-82.761078
-98.652344
-111.497070
-120.331451
-125.102966
-126.661102
-126.206024
-124.798492
-123.016296
-120.879120
-118.204376
-114.831604
-110.941406
-107.016205
-103.724792
-101.559265
-100.732483
-101.034149
-101.941803
-102.790131
-102.909973
-101.722626
-98.740295
-93.715698
-86.572113
-77.504852
-66.881012
-55.087463
-42.467133
-29.331116
-16.136688
-3.516663
7.600494
16.324951
22.082184
24.963287
25.695892
25.487823
25.504944
26.492523
28.604584
31.426910
34.255737
36.399109
37.559265
38.142181
39.189728
42.043976
47.695648
56.166626
66.234528
75.842621
82.861542
86.079117
85.689789
83.102509
80.173035
78.406006
78.308136
79.432068
80.717484
80.847885
78.499832
72.476242
61.846085
46.364243
26.845642
5.351364
-15.360001
-32.482376
-44.218674
-50.255005
-51.642166
-50.088593
-47.125565
-43.527740
-39.334000
-34.220627
-28.036011
-21.106964
-14.161255
-7.950394
-3.003387
0.578171
3.008743
4.611404
5.665192
6.323349
6.662628
6.789955
6.936722
7.391815
8.332382
9.654976
10.864609
11.230431
10.068909
7.123573
2.724190
-2.222351
-6.666328
-9.819366
-11.445389
-11.872498
-11.721893
-11.559021
-11.762505
-12.423256
-13.582275
-15.234688
-17.404533
-20.052288
-23.092957
-26.380463
-29.772270
-33.076092
-35.967865
-37.973965
-38.435509
-36.711033
-32.350441
-25.342417
-16.124027
-5.439087
5.802759
16.754929
26.667425
34.987869
41.273743
45.343121
47.188175
47.079689
45.489639
42.950447
39.969414
36.937122
34.111683
31.623737
29.570158
28.073486
27.270592
27.349060
28.345337
30.150429
32.422775
34.700901
36.471161
37.338676
37.025875
35.421143
32.534931
28.494518
23.598652
18.251347
12.866631
7.804482
3.236107
-0.827690
-4.522102
-7.911491
-11.016907
-13.796837
-16.264572
-18.568596
-20.908669
-23.518463
-26.454933
-29.546295
-32.324440
-34.168884
-34.377762
-32.362915
-27.818436
-20.738327
-11.558563
-0.995186
10.033615
20.636307
30.021637
37.626984
43.048088
46.135689
46.985832
45.964546
43.657524
40.751068
37.849541
35.366043
33.468781
32.163445
31.388229
31.135086
31.471603
32.503777
34.252930
36.587883
39.232529
41.832840
44.087250
45.848724
47.114380
47.973137
48.444504
48.480194
47.933426
46.775253
45.224407
43.794315
43.091961
43.538460
45.144279
47.480797
49.805428
51.334785
51.414925
49.700676
46.145695
41.080307
35.218636
29.649874
25.595413
24.089504
25.622482
30.008736
36.491440
44.107170
52.033081
59.795525
67.108917
73.594025
78.422920
80.290024
77.671669
69.269791
54.461174
33.582603
7.927002
-20.476624
-49.146225
-75.561081
-97.436096
-113.009369
-121.298492
-122.243118
-116.731766
-106.420273
-93.382233
-79.499252
-66.077957
-53.597092
-41.837906
-30.205048
-18.163239
-5.469727
7.738983
21.107056
34.270050
46.889832
58.579773
68.706879
76.261292
80.174377
79.642792
74.416107
64.710022
50.711243
32.215912
8.702942
-19.973907
-52.703461
-86.604950
-117.427856
-140.844330
-153.955383
-156.357391
-150.019714
-138.245300
-124.310455
-110.425476
-97.552551
-85.910278
-75.582916
-67.001160
-60.870819
-57.849731
-58.141724
-61.337799
-66.339996
-71.722778
-76.101685
-78.498260
-78.471863
-76.149261
-71.985168
-66.574768
-60.470520
-54.122498
-47.926056
-42.275787
-37.544067
-34.033264
-31.905304
-31.088593
-31.374542
-32.471405
-34.070953
-35.986816
-38.131042
-40.419037
-42.758484
-44.881958
-46.405060
-46.813995
-45.580017
-42.384338
-37.290466
-30.790253
-23.682434
-16.827454
-10.848450
-5.926758
-1.920776
1.408325
4.181427
6.251343
7.358093
7.328247
6.232391
4.419617
2.352325
0.447189
-1.068802
-2.060944
-2.408035
-1.929749
-0.429703
2.050323
5.275711
8.698471
11.716064
13.898468
15.080261
15.352081
14.844681
13.720901
12.263000
10.982925
10.514221
11.367371
13.529694
16.182846
17.869095
17.001579
12.615974
4.752548
-5.475166
-16.378235
-26.242432
-33.771301
-38.172771
-39.062637
-36.324684
-30.053501
-20.668142
-8.982908
3.823336
16.403763
27.539082
36.315701
42.388580
45.947334
47.687798
48.475979
49.119366
50.008846
51.009880
51.456638
50.555534
47.746040
43.058884
37.156853
31.013084
25.587761
21.393661
18.446266
16.501877
15.342636
14.985535
15.591080
17.243103
19.654343
22.244965
24.314209
25.367691
25.239517
24.071457
22.091370
19.419281
16.011398
11.753372
6.677109
1.114929
-4.307053
-8.710464
-11.227936
-11.136078
-8.047867
-1.911179
6.950638
17.974152
30.385086
43.220093
55.374146
65.507584
72.339722
74.937241
73.103928
67.524704
59.670822
51.315536
43.955124
38.488876
35.037735
33.231842
32.496521
32.364944
32.604218
33.262558
34.483246
36.406281
39.004074
41.976990
44.795410
46.740494
47.048599
45.107605
40.634262
33.687149
24.654678
14.154739
2.887863
-8.391617
-18.967712
-28.207413
-35.690323
-41.215256
-44.864014
-46.855560
-47.374878
-46.499847
-44.150192
-40.149872
-34.446182
-27.158875
-18.655350
-9.450607
-0.091995
8.932922
17.118973
23.952209
28.888916
31.506088
31.673798
29.666504
26.079987
21.752518
17.439346
13.638458
10.578690
8.310547
6.793442
6.051590
6.086578
6.838593
8.093002
9.492218
10.581253
10.946182
10.294464
8.516541
5.671463
1.957550
-2.331009
-6.871964
-11.399597
-15.746567
-19.915710
-24.001869
-28.133759
-32.326797
-36.371140
-39.790565
-41.971855
-42.324226
-40.454376
-36.273621
-30.074921
-22.441360
-14.080933
-5.743561
1.904495
8.385536
13.376823
16.774010
18.592186
18.987358
18.158104
16.369225
13.925301
11.180275
8.491684
6.190834
4.526184
3.562019
3.228935
3.315376
3.543030
3.699516
3.595543
3.130608
2.205948
0.653252
-1.694328
-4.857422
-8.601372
-12.428841
-15.739449
-18.079590
-19.401993
-20.058083
-20.687820
-21.852768
-23.799400
-26.267426
-28.614212
-30.031670
-29.831863
-27.681030
-23.649033
-18.145233
-11.810646
-5.310402
0.801735
6.151924
10.546005
13.793442
15.703972
16.050484
14.689865
11.730804
7.572670
2.892639
-1.499855
-4.898651
-6.836716
-7.237152
-6.439857
-5.089294
-3.984291
-3.809311
-4.969437
-7.457527
-10.903557
-14.718803
-18.292374
-21.102142
-22.862442
-23.420929
-22.798134
-21.207878
-19.102798
-17.145943
-16.124268
-16.695251
-19.117264
-23.085625
-27.705467
-31.780334
-34.151268
-34.077301
-31.441338
-26.690582
-20.651619
-14.184219
-8.005371
-2.526810
2.073387
5.765327
8.601837
10.721069
12.315437
13.644485
14.954781
16.369774
17.883896
19.359261
20.640068
21.666359
22.478012
23.218910
23.978264
24.767525
25.420677
25.662979
25.180664
23.710815
21.138580
17.548645
13.223282
8.511551
3.780487
-0.745560
-4.984924
-8.914581
-12.526382
-15.745712
-18.535965
-20.986633
-23.220490
-25.284805
-26.927429
-27.485428
-26.135147
-22.223984
-15.678116
-7.081879
2.445114
11.707733
19.832016
26.456512
31.594757
35.409088
37.963715
39.225128
39.172974
37.993729
36.142914
34.273376
32.981857
32.638672
33.301193
34.734039
36.621460
38.693832
40.828094
43.039185
45.346786
47.711472
50.011169
52.072449
53.751633
54.967163
55.685486
55.928162
55.781845
55.483109
55.302879
55.494331
56.021545
56.407425
55.744812
52.888649
46.892448
37.387474
24.763390
10.107468
-5.091377
-19.235062
-30.991989
-39.426857
-44.210747
-45.683121
-44.913467
-43.478073
-43.118950
-45.324142
-50.955986
-60.141655
-72.309677
-86.386490
-101.034790
-114.808517
-126.354614
-134.518539
-138.550827
-138.226395
-133.880783
-126.222900
-116.191475
-104.734955
-92.720238
-80.854279
-69.640129
-59.322510
-49.930408
-41.291557
-33.241051
-25.680580
-18.733612
-12.614120
-7.526001
-3.531509
-0.502083
1.818665
3.654694
5.120110
6.186821
6.716339
6.564590
5.677818
4.143661
2.276642
0.628685
-0.099602
0.752434
3.641327
8.635727
15.393845
23.247787
31.410019
39.164566
45.990997
51.551025
55.656540
58.195633
59.131271
58.572678
56.774109
54.103226
50.935562
47.592072
44.268158
41.107498
38.251678
35.902115
34.266708
33.426819
33.277008
33.476410
33.617386
33.316330
32.394699
30.853622
28.793396
26.326874
23.499008
20.377930
17.066620
13.710709
10.397354
7.075134
3.498993
-0.597504
-5.316299
-10.454910
-15.446243
-19.484283
-21.753693
-21.702454
-19.136246
-14.245102
-7.505127
0.420273
8.826218
17.044937
24.542389
30.898666
35.864700
39.289124
41.123383
41.402100
40.293213
38.035065
34.931091
31.333252
27.583359
24.034698
20.969757
18.538284
16.747818
15.362640
14.002655
12.266403
9.893555
6.898605
3.587921
0.381012
-2.362183
-4.542084
-6.392258
-8.426041
-11.222672
-15.263489
-20.696640
-27.337296
-34.703934
-42.218750
-49.272049
-55.364349
-59.999084
-62.646210
-62.794235
-60.071533
-54.358200
-46.016144
-35.816147
-24.796768
-14.026779
-4.336151
3.772263
10.098755
14.687424
17.768082
19.632828
20.603485
20.947754
20.806290
20.248032
19.291061
18.026794
16.662537
15.424850
14.462585
13.754272
13.098389
12.259583
11.062637
9.553894
7.894592
6.322296
4.933914
3.648300
2.214020
0.350327
-2.149445
-5.289352
-8.894470
-12.680054
-16.250275
-19.258194
-21.364136
-22.274780
-21.777023
-19.770752
-16.296341
-11.546936
-5.894699
0.240112
6.364929
12.041924
16.855141
20.449898
22.584984
23.186729
22.373695
20.404160
17.664223
14.550346
11.415688
8.547562
6.103645
4.155403
2.651436
1.486046
0.485497
-0.471962
-1.491417
-2.624283
-3.909286
-5.387466
-7.080086
-8.991875
-11.086220
-13.321716
-15.690826
-18.253403
-21.110901
-24.264320
-27.546875
-30.526382
-32.609253
-33.156807
-31.728050
-28.181053
-22.731743
-15.860214
-8.170639
-0.288574
7.227966
13.872894
19.258476
23.065910
25.102615
25.347656
23.973373
21.330933
17.892761
14.180099
10.629410
7.601524
5.280220
3.765305
3.102928
3.266388
4.115059
5.381821
6.629021
7.393547
7.319717
6.281952
4.376762
1.918930
-0.809319
-3.589294
-6.328621
-9.073730
-11.919640
-14.990448
-18.432793
-22.327950
-26.579659
-30.823463
-34.421257
-36.533081
-36.407051
-33.581200
-28.084572
-20.425453
-11.451706
-2.098282
6.762650
14.507111
20.678513
25.006088
27.380722
27.853180
26.670807
24.280128
21.225685
18.006584
14.979843
12.281380
9.857437
7.668488
5.752525
4.267517
3.382965
3.155960
3.405281
3.773003
3.797844
3.093575
1.470856
-1.043953
-4.304878
-8.072380
-12.151772
-16.388168
-20.710335
-25.125404
-29.702385
-34.486908
-39.531471
-44.775169
-50.041710
-54.967163
-59.029579
-61.583344
-61.992142
-59.794022
-54.868683
-47.493744
-38.271767
-27.952347
-17.286911
-6.873489
2.831970
11.480713
18.767899
24.493698
28.549377
31.042007
32.309402
32.831131
33.111633
33.628494
34.632263
36.129761
37.859299
39.404083
40.349289
40.469162
39.819168
38.659256
37.286148
35.834641
34.185959
32.088837
29.279907
25.703690
21.521851
17.036484
12.580399
8.365005
4.429092
0.604324
-3.398163
-7.891998
-13.126984
-19.040283
-25.250900
-31.004517
-35.398590
-37.664246
-37.411636
-34.638184
-29.643158
-22.828506
-14.564972
-5.241333
4.651123
14.430145
23.273697
30.348862
35.003891
36.923203
36.180725
33.230682
28.753464
23.546326
18.328522
13.641144
9.733307
6.583145
3.958618
1.586609
-0.682068
-2.835953
-4.720230
-6.046417
-6.551514
-6.048355
-4.514542
-2.098984
0.883301
4.056412
7.067322
9.667740
11.693375
12.983566
13.343842
12.613464
10.698578
7.697556
3.835281
-0.566986
-5.224960
-9.883530
-14.265640
-17.976349
-20.521988
-21.418335
-20.462585
-17.834946
-14.099182
-9.961288
-5.987701
-2.494049
0.408051
2.658920
4.095001
4.530624
3.909866
2.436157
0.547363
-1.208328
-2.424408
-2.930756
-2.789368
-2.179535
-1.220428
0.088562
1.805878
3.972733
6.475586
9.073990
11.416885
13.198822
14.223663
14.494324
14.182434
13.529861
12.739166
11.889633
10.910873
9.647629
7.939789
5.616440
2.505783
-1.524857
-6.514114
-12.263412
-18.266846
-23.755783
-27.866394
-29.902252
-29.569534
-27.011200
-22.700043
-17.236542
-11.143692
-4.800583
1.533997
7.584991
12.981049
17.271561
20.047104
21.129044
20.615005
18.951447
16.761215
14.649719
13.039154
12.122498
11.904556
12.340698
13.358765
14.835373
16.515762
17.989853
18.794098
18.608017
17.328735
15.145279
12.315475
9.090591
5.562286
1.726898
-2.430649
-6.814804
-11.225281
-15.408691
-19.147064
-22.391861
-25.199753
-27.705002
-30.042206
-32.209930
-34.076035
-35.324600
-35.556229
-34.354233
-31.468658
-26.875366
-20.893494
-14.092300
-7.205521
-0.937241
4.100464
7.543564
9.224777
9.200363
7.728500
5.197784
2.087845
-1.085968
-3.854385
-5.847595
-6.837463
-6.801117
-5.906296
-4.434723
-2.684418
-0.969421
0.510605
1.601898
2.221085
2.350174
2.028549
1.362946
0.492432
-0.412079
-1.283096
-2.164764
-3.254456
-4.811890
-7.089066
-10.167023
-13.919449
-17.970490
-21.754959
-24.623657
-26.012772
-25.616364
-23.421967
-19.682083
-14.775391
-9.042358
-2.786072
3.732895
10.157349
16.020187
20.773193
23.935654
25.271164
24.871109
23.089447
20.447250
17.475327
14.644913
12.313873
10.706100
9.916672
9.893387
10.500992
11.603531
13.116913
14.995331
17.139679
19.385223
21.409210
22.917679
23.650040
23.592285
22.866013
21.684219
20.225861
18.563568
16.668259
14.492584
11.983612
9.125504
5.892181
2.206711
-1.966812
-6.592407
-11.399261
-15.897873
-19.411285
-21.244019
-20.925751
-18.293716
-13.625229
-7.472290
-0.552811
6.494217
13.070862
18.693481
22.965073
25.548157
26.303299
25.324280
22.966293
19.757874
16.219498
12.834854
9.927734
7.721222
6.256714
5.406830
4.879807
4.392120
3.832748
3.393082
3.503281
4.593895
6.808319
9.820747
12.950172
15.461647
16.826889
16.943611
16.025276
14.420349
12.375771
10.044693
7.388916
4.412834
1.167480
-2.159180
-5.199409
-7.374367
-7.924248
-6.182190
-1.671074
5.639671
15.286530
26.508179
38.308296
49.713512
59.820370
67.872284
73.286102
75.794708
75.489708
72.896187
68.813828
64.102058
59.380882
54.896824
50.488705
45.826241
40.652809
34.948830
28.976994
23.174503
17.944212
13.514133
9.887909
6.936890
4.448734
2.249870
0.136578
-2.093239
-4.592964
-7.516190
-10.915527
-14.705833
-18.761116
-23.001472
-27.486664
-32.434898
-38.082253
-44.442978
-51.224899
-57.699234
-62.897049
-65.834518
-65.770859
-62.319580
-55.559647
-45.897644
-34.103043
-21.290314
-8.835144
1.747086
9.106384
12.342484
11.243896
6.196014
-2.031799
-12.663055
-25.058655
-38.592026
-52.553970
-66.090790
-78.309174
-88.576004
-96.764389
-103.195526
-108.423172
-112.857224
-116.546371
-119.185150
-120.381668
-119.835739
-117.542130
-113.702087
-108.634689
-102.720154
-96.374329
-90.032532
-84.161621
-79.119522
-75.068130
-71.957764
-69.595444
-67.706879
-65.985565
-64.076233
-61.552582
-57.960052
-52.884048
-46.096802
-37.775635
-28.467087
-19.004303
-10.222321
-2.775543
2.991577
6.999252
9.374847
10.317810
10.067734
8.942719
7.338959
5.746101
4.631805
4.384521
5.212578
7.097672
9.902390
13.385117
17.302082
21.370533
25.316620
28.838440
31.702263
33.694393
34.732338
34.878311
34.361576
33.497555
32.580769
31.804924
31.237144
30.867767
30.634682
30.454811
30.236298
29.788773
28.878052
27.275612
24.958176
22.186874
19.534935
17.716080
17.355652
18.775833
21.884995
26.262589
31.347916
36.617310
41.654526
46.180023
49.986862
52.851883
54.549347
54.857574
53.688416
51.108856
47.400574
42.970520
38.266464
33.678833
29.467545
25.763611
22.611374
20.083450
18.207870
16.994263
16.355804
16.064499
15.802734
15.248398
14.243622
12.769958
11.003265
9.149933
7.396698
5.803421
4.331589
2.821625
1.028870
-1.269562
-4.198090
-7.659241
-11.347137
-14.759735
-17.362335
-18.785095
-18.866547
-17.681305
-15.403809
-12.215759
-8.227386
-3.573853
1.534454
6.708496
11.446167
15.247192
17.824249
19.135681
19.393555
18.925354
18.041718
16.931854
15.691315
14.363861
13.034027
11.825226
10.885986
10.251801
9.904877
9.715759
9.541290
9.256256
8.776276
8.058411
7.081757
5.863098
4.426117
2.850525
1.196594
-0.511108
-2.307617
-4.288818
-6.530182
-9.071655
-11.825958
-14.550201
-16.855103
-18.278198
-18.355438
-16.775024
-13.407928
-8.410889
-2.147919
4.880035
12.136414
19.089935
25.226257
30.079102
33.287720
34.703186
34.469513
32.996490
30.893250
28.732300
26.953094
25.702057
24.940460
24.470612
24.014313
23.322266
22.223602
20.715302
18.895355
16.942688
14.976135
12.986908
10.819397
8.293549
5.306396
1.907623
-1.738007
-5.523865
-9.441010
-13.595428
-18.064880
-22.796692
-27.462494
-31.548340
-34.448883
-35.641937
-34.799744
-31.815857
-26.879242
-20.366577
-12.800018
-4.763428
3.205536
10.615509
17.069061
22.241211
25.925751
28.008514
28.527191
27.657684
25.646210
22.794098
19.419617
15.819977
12.323669
9.226440
6.803192
5.204865
4.491699
4.545654
5.180084
6.124451
7.084625
7.756561
7.853516
7.182648
5.738953
3.648285
1.149307
-1.515640
-4.215012
-6.964035
-9.863205
-13.053528
-16.669678
-20.790649
-25.392700
-30.310440
-35.126907
-39.241226
-41.960159
-42.644211
-41.007309
-37.152542
-31.541672
-24.783295
-17.439285
-9.899536
-2.398727
4.760666
11.148575
16.141968
19.139389
19.780151
18.117294
14.695206
10.361603
6.003433
2.310287
-0.376511
-2.007111
-2.675568
-2.450302
-1.370651
0.554703
3.252106
6.519028
10.010101
13.364044
16.229523
18.351105
19.554230
19.707153
18.759064
16.746429
13.855576
10.374969
6.629791
2.917526
-0.648926
-4.108215
-7.648712
-11.492584
-15.845596
-20.709045
-25.809631
-30.597763
-34.278061
-36.026779
-35.229431
-31.648636
-25.529816
-17.519836
-8.532883
0.487289
8.735901
15.688416
21.080261
24.881943
27.232498
28.342545
28.438873
27.769821
26.616440
25.271164
23.994873
22.899796
21.969559
21.093246
20.184738
19.289398
18.589767
18.326141
18.608658
19.351013
20.254440
20.920135
20.960068
20.100021
18.207932
15.343338
11.717896
7.678299
3.622391
-0.123032
-3.389023
-6.224197
-8.856201
-11.533249
-14.444458
-17.650558
-21.128647
-24.808640
-28.594635
-32.341110
-35.757797
-38.426361
-39.796509
-39.375275
-36.865219
-32.250244
-25.787521
-17.992081
-9.498550
-0.977463
6.941391
13.729172
18.989365
22.512131
24.267853
24.485260
23.532700
21.890640
20.051422
18.407867
17.188339
16.464447
16.146225
16.066452
16.028519
15.866516
15.459137
14.796585
13.917641
12.863220
11.675255
10.317459
8.737320
6.891953
4.788643
2.482666
0.055145
-2.423210
-4.981148
-7.645905
-10.429649
-13.241951
-15.935249
-18.336906
-20.395905
-22.156776
-23.775467
-25.412704
-27.164513
-29.067757
-31.096001
-33.165466
-35.129021
-36.663559
-37.324005
-36.588486
-34.062447
-29.583122
-23.397514
-16.030785
-8.170670
-0.493019
6.497437
12.446236
17.133743
20.458755
22.397919
22.974449
22.352890
20.789406
18.554321
15.972954
13.346886
10.995483
9.163147
8.050545
7.674530
7.926926
8.578125
9.356636
10.069805
10.612896
10.940228
10.970879
10.539825
9.462025
7.594326
5.000198
1.935055
-1.179111
-4.004150
-6.375252
-8.364742
-10.221619
-12.182652
-14.320374
-16.569962
-18.755337
-20.721554
-22.482830
-24.128540
-25.684509
-27.049328
-27.947124
-27.998226
-26.869339
-24.403267
-20.661594
-15.899246
-10.462296
-4.746113
0.867985
5.970371
10.176689
13.129753
14.638351
14.676506
13.461651
11.413624
9.046967
6.853313
5.182968
4.173183
3.772224
3.878696
4.367298
5.156063
6.144062
7.185474
8.032879
8.439877
8.203800
7.260880
5.711498
3.729191
1.525520
-0.756981
-3.022106
-5.208893
-7.300060
-9.296040
-11.235260
-13.204300
-15.306053
-17.588844
-19.964653
-22.220745
-23.980976
-24.865410
-24.535110
-22.827618
-19.792274
-15.624447
-10.585701
-4.989429
0.852386
6.567532
11.741100
15.961857
18.914944
20.428467
20.569378
19.547554
17.623325
15.086246
12.265533
9.500832
7.134140
5.396755
4.308815
3.701561
3.283184
2.795174
2.147205
1.404114
0.720634
0.146461
-0.350979
-0.982471
-1.950623
-3.402542
-5.304001
-7.490398
-9.722546
-11.839077
-13.779606
-15.625996
-17.511955
-19.492012
-21.418701
-22.905430
-23.424728
-22.538223
-20.040737
-16.045609
-10.877090
-4.989964
1.178909
7.245674
12.806065
17.443649
20.786789
22.620113
22.930908
21.990517
20.245377
18.134727
16.058155
14.213303
12.671394
11.350395
10.060921
8.590839
6.859081
4.971649
3.235306
1.994537
1.446941
1.482609
1.702690
1.591137
0.732273
-1.035610
-3.639965
-6.885017
-10.538410
-14.444645
-18.471703
-22.439655
-26.096493
-29.136448
-31.235950
-32.121719
-31.580879
-29.522186
-26.043236
-21.384041
-15.809120
-9.587749
-2.875134
4.155685
11.186829
17.633274
22.708561
25.604439
25.912025
23.818047
20.095528
15.902161
12.336472
10.144638
9.544670
10.316330
11.985619
14.050774
16.122345
17.858986
19.045486
19.460213
18.885864
17.224327
14.537178
11.121460
7.424866
3.924995
0.951233
-1.429504
-3.415833
-5.389374
-7.692276
-10.561722
-14.034843
-17.898460
-21.685318
-24.761208
-26.357986
-25.835800
-22.815285
-17.393272
-10.093254
-1.781494
6.641792
14.436020
21.060326
26.215263
29.737534
31.581116
31.813194
30.658463
28.464455
25.610519
22.425835
19.111443
15.798111
12.597588
9.674179
7.202568
5.348679
4.167877
3.602345
3.452343
3.479477
3.492142
3.383335
3.098305
2.576176
1.730629
0.427132
-1.460770
-3.968220
-7.072701
-10.651520
-14.560539
-18.645462
-22.708210
-26.432140
-29.365566
-30.975739
-30.735935
-28.353081
-23.852482
-17.592606
-10.154552
-2.252281
5.460133
12.409954
18.104630
22.207535
24.525391
25.069225
24.083828
22.000946
19.330601
16.585526
14.138554
12.169979
10.712208
9.694904
9.028744
8.637325
8.459503
8.445824
8.501064
8.460405
8.091663
7.197073
5.685280
3.584499
1.044092
-1.748957
-4.686197
-7.680138
-10.747751
-13.923298
-17.249289
-20.857014
-24.808590
-29.006441
-33.100487
-36.429218
-38.189301
-37.763348
-34.935230
-29.954998
-23.409073
-15.852125
-7.649219
1.023073
9.974322
18.766422
26.639820
32.753033
36.513470
37.808460
37.004700
34.760025
31.634539
28.032040
24.152437
20.146048
16.303102
13.058968
10.814946
9.781728
9.818926
10.443068
10.995428
10.849744
9.625732
7.306786
4.179796
0.656183
-2.881220
-6.202599
-9.272936
-12.204358
-15.193214
-18.398808
-21.868046
-25.449970
-28.868454
-31.629585
-33.227379
-33.238792
-31.442987
-27.897137
-22.950005
-17.119946
-11.014313
-5.202099
-0.138741
3.858639
6.588644
8.022831
8.288662
7.654736
6.474615
5.103413
3.788265
2.669056
1.762396
1.018635
0.410980
-0.050913
-0.395777
-0.744360
-1.318565
-2.397686
-4.195707
-6.747484
-9.906139
-13.340370
-16.738722
-19.813547
-22.401468
-24.395126
-25.727499
-26.333111
-26.182919
-25.370163
-24.036484
-22.287893
-20.103806
-17.291655
-13.580669
-8.816500
-3.102331
3.230721
9.703356
15.910820
21.569601
26.489544
30.472767
33.253365
34.537460
34.135376
32.124107
28.880896
24.974628
21.024702
17.492723
14.634535
12.523312
11.097870
10.223989
9.726690
9.430357
9.170815
8.849810
8.423897
7.904558
7.292147
6.532417
5.555941
4.260984
2.552195
0.386171
-2.207930
-5.185249
-8.406370
-11.717577
-14.960426
-17.997345
-20.669521
-22.830910
-24.286537
-24.776619
-24.066563
-21.967422
-18.427914
-13.627655
-7.909344
-1.786922
4.204426
9.563820
13.926903
17.052464
18.865288
19.452225
18.983379
17.698257
15.810612
13.514198
11.015297
8.508560
6.239487
4.451813
3.345207
2.936779
3.136322
3.678089
4.212852
4.405003
4.016548
2.938644
1.204880
-1.039776
-3.599480
-6.244099
-8.754086
-10.978897
-12.912098
-14.700893
-16.614891
-18.936481
-21.738243
-24.757504
-27.363155
-28.759663
-28.282837
-25.669594
-21.150188
-15.327278
-8.908478
-2.476173
3.609974
9.120968
13.864258
17.579067
20.062950
21.245365
21.275116
20.467255
19.158474
17.555367
15.733913
13.680698
11.399242
9.041908
6.878403
5.179173
4.125927
3.718166
3.794758
4.095760
4.340939
4.287113
3.772125
2.720184
1.149532
-0.873337
-3.200546
-5.698017
-8.238823
-10.772682
-13.300022
-15.907093
-18.629490
-21.408390
-23.992981
-25.979576
-26.902435
-26.342262
-24.047485
-20.014679
-14.487602
-7.940834
-0.968025
5.800461
11.795738
16.619232
20.050629
22.074715
22.855049
22.657822
21.786034
20.549385
19.162865
17.741501
16.333054
14.912895
13.493248
12.124886
10.952171
10.093872
9.591423
9.313622
9.039764
8.522514
7.564301
6.101936
4.196678
1.985542
-0.361061
-2.663689
-4.832436
-6.851280
-8.834320
-11.002357
-13.552628
-16.583191
-19.968094
-23.353409
-26.216248
-28.024620
-28.352760
-26.994423
-23.992805
-19.574097
-14.174385
-8.286545
-2.382225
3.159508
8.079216
12.194023
15.358704
17.396202
18.247696
17.980293
16.877319
15.329185
13.702995
12.168304
10.751305
9.405754
8.140572
7.133095
6.615463
6.717972
7.355476
8.205978
8.847092
8.936768
8.294441
6.915070
4.960709
2.636635
0.153152
-2.314224
-4.674294
-6.892937
-8.973404
-10.952156
-12.875740
-14.808891
-16.928619
-19.390007
-22.225304
-25.172165
-27.601364
-28.659836
-27.587357
-24.106995
-18.512001
-11.620415
-4.419052
2.241234
7.750496
11.791130
14.238846
15.122223
14.649933
13.251732
11.467941
9.823097
8.635689
7.847183
7.191544
6.382568
5.252205
3.926483
2.713821
1.914978
1.732719
2.139099
2.905457
3.707878
4.234985
4.257652
3.683334
2.556213
0.961708
-0.947372
-2.999313
-5.030487
-6.914322
-8.601929
-10.158493
-11.742737
-13.526703
-15.621811
-17.942940
-20.166504
-21.848198
-22.494926
-21.753960
-19.535950
-15.981537
-11.463882
-6.458229
-1.412994
3.339577
7.544342
11.012405
13.520599
14.843384
14.846260
13.610710
11.424034
8.790703
6.249344
4.193863
2.794205
1.995834
1.626213
1.492081
1.472748
1.494057
1.492485
1.419586
1.232277
0.958618
0.641045
0.355263
0.089340
-0.207283
-0.686241
-1.449768
-2.587685
-4.150528
-6.141968
-8.529160
-11.241447
-14.110680
-16.840851
-19.072403
-20.402687
-20.480125
-19.163887
-16.466682
-12.638344
-8.085083
-3.282562
1.347252
5.439705
8.753159
11.161545
12.660286
13.324646
13.354378
12.951408
12.317276
11.585144
10.762566
9.811882
8.726395
7.619446
6.659889
6.028214
5.756149
5.669189
5.449730
4.784187
3.583244
1.963959
0.156670
-1.615517
-3.282173
-4.885834
-6.476730
-8.054382
-9.595161
-11.079193
-12.612144
-14.396851
-16.545242
-18.952415
-21.222351
-22.785583
-23.058167
-21.718437
-18.707703
-14.335060
-9.060558
-3.392780
2.224586
7.418777
11.868301
15.339195
17.612167
18.600380
18.378075
17.176788
15.378643
13.353050
11.427280
9.815880
8.639442
7.946140
7.763161
8.050735
8.680965
9.439137
10.051189
10.312336
10.149136
9.607475
8.770691
7.686783
6.344517
4.669125
2.609642
0.163452
-2.566097
-5.430634
-8.287128
-11.111427
-13.960003
-16.982334
-20.228607
-23.585625
-26.661476
-28.872524
-29.540932
-28.188236
-24.698826
-19.389095
-12.873608
-5.835262
1.164804
7.772367
13.772224
18.967026
23.107859
25.916691
27.239172
27.099174
25.816626
23.879339
21.808969
19.970961
18.560080
17.544064
16.822533
16.306351
15.971077
15.834311
15.941074
16.277946
16.737690
17.158195
17.362677
17.208122
16.578846
15.370136
13.518284
11.011688
7.951187
4.528952
1.057281
-2.181961
-5.020264
-7.488535
-9.757395
-12.057674
-14.515017
-17.018986
-19.239395
-20.713190
-20.962784
-19.701027
-16.872959
-12.708942
-7.709187
-2.456528
2.497272
6.770279
10.190327
12.747406
14.481052
15.413128
15.563450
14.928993
13.655434
11.965942
10.109558
8.288998
6.574478
4.959820
3.462040
2.188057
1.324841
1.053837
1.445808
2.352871
3.511879
4.571831
5.242844
5.374275
4.984501
4.140759
2.982918
1.583725
-0.042023
-1.938499
-4.149483
-6.693405
-9.506138
-12.490891
-15.567245
-18.663212
-21.728176
-24.693470
-27.429497
-29.799522
-31.621704
-32.672977
-32.681244
-31.309357
-28.235641
-23.314156
-16.737492
-9.040417
-1.012169
6.546406
13.070942
18.257519
22.049309
24.426239
25.406708
25.022469
23.493919
21.186081
18.566673
16.051048
13.871948
12.066696
10.554222
9.238869
8.160904
7.432182
7.171219
7.414215
8.119751
9.103111
10.093323
10.749290
10.723579
9.759544
7.801353
5.033470
1.800720
-1.511864
-4.636436
-7.493217
-10.178360
-12.844406
-15.627808
-18.628754
-21.840263
-25.222748
-28.605309
-31.685928
-33.990334
-34.969521
-34.163673
-31.401176
-26.888710
-21.128639
-14.819794
-8.581772
-2.850334
2.228928
6.648102
10.440941
13.582947
15.925034
17.335518
17.733978
17.222519
15.939964
14.054771
11.681099
8.960854
6.169464
3.767204
2.296394
2.133713
3.324341
5.423416
7.723518
9.531502
10.435593
10.412231
9.707100
8.634216
7.388962
6.040276
4.567299
3.012787
1.482697
0.086044
-1.167831
-2.501801
-4.248405
-6.830673
-10.483040
-15.105003
-20.192589
-24.943626
-28.526459
-30.278618
-29.970123
-27.696724
-23.865753
-18.932968
-13.330650
-7.400345
-1.438148
4.209175
9.212128
13.213333
15.969223
17.358528
17.430801
16.416077
14.659889
12.550995
10.425240
8.513695
6.921638
5.694878
4.844604
4.393776
4.357422
4.689362
5.286049
5.973289
6.545036
6.853897
6.807083
6.358353
5.481407
4.187279
2.486794
0.458660
-1.846325
-4.372368
-7.138649
-10.217228
-13.655376
-17.427608
-21.360203
-25.139832
-28.344475
-30.449516
-30.976543
-29.572453
-26.107059
-20.720673
-13.882378
-6.230057
1.479931
8.540741
14.391060
18.612377
20.961334
21.410961
20.205261
17.825455
14.904232
12.046551
9.665321
7.914349
6.732296
5.980286
5.574364
5.501118
5.710793
6.092007
6.437946
6.503830
6.091206
5.121979
3.617157
1.704178
-0.466045
-2.747002
-4.994781
-7.104156
-9.066555
-10.907120
-12.728271
-14.637081
-16.712967
-18.980995
-21.332172
-23.496647
-25.057583
-25.514469
-24.440928
-21.646486
-17.237720
-11.547913
-5.047390
1.833132
8.700691
15.194361
20.866053
25.241055
27.897858
28.606869
27.483267
24.934349
21.511744
17.796726
14.207943
11.029636
8.407316
6.425291
5.114252
4.468779
4.380867
4.689661
5.176191
5.595751
5.706600
5.344781
4.448053
3.091397
1.445377
-0.289508
-1.990302
-3.631456
-5.390030
-7.502155
-10.232672
-13.723598
-17.912212
-22.415306
-26.586401
-29.652275
-30.894718
-29.898077
-26.609085
-21.336798
-14.626804
-7.079823
0.698086
8.121544
14.616351
19.730030
23.175880
24.968203
25.380121
24.859882
23.814671
22.466230
20.849211
18.906788
16.636938
14.185527
11.804326
9.788034
8.303679
7.387770
6.900986
6.654229
6.431524
6.117647
5.608581
4.833908
3.732496
2.220781
0.268366
-2.043353
-4.526421
-6.919954
-9.068169
-10.943647
-12.735207
-14.660956
-16.905132
-19.346565
-21.572422
-23.017370
-23.154974
-21.679363
-18.562695
-14.057673
-8.549530
-2.491142
3.662586
9.474587
14.491426
18.289219
20.549957
21.146507
20.164305
17.962536
15.038178
11.928837
9.064016
6.680909
4.840788
3.537719
2.739718
2.450211
2.653686
3.259459
4.039461
4.742419
5.102003
4.994372
4.373963
3.265873
1.698585
-0.276402
-2.565121
-4.985640
-7.342072
-9.575325
-11.808863
-14.320478
-17.379702
-20.987743
-24.754950
-28.013178
-30.014309
-30.167126
-28.268396
-24.479090
-19.212557
-12.994864
-6.335028
0.356047
6.683081
12.292847
16.851246
20.043917
21.673170
21.704765
20.282894
17.767454
14.615034
11.270290
8.104816
5.377542
3.259239
1.855465
1.169619
1.127457
1.553955
2.227020
2.890186
3.354969
3.466228
3.107555
2.180378
0.683487
-1.316662
-3.620502
-5.995434
-8.242100
-10.291687
-12.184597
-14.082809
-16.096645
-18.239403
-20.408508
-22.380745
-23.812881
-24.300522
-23.374718
-20.626816
-15.856503
-9.235119
-1.325748
6.950649
14.605003
20.755417
24.822056
26.601982
26.267094
24.297489
21.367306
18.154907
15.214661
12.831852
11.049839
9.722996
8.706810
7.889294
7.241795
6.732327
6.275730
5.739414
5.050243
4.249290
3.424469
2.680405
1.962227
1.054626
-0.286209
-2.224426
-4.787918
-7.881927
-11.327652
-15.023918
-18.812775
-22.520126
-25.823151
-28.282761
-29.457062
-29.045898
-26.914734
-23.200050
-18.212021
-12.317162
-5.914436
0.609688
6.861099
12.392021
16.762077
19.625145
20.842300
20.529022
19.037102
16.798027
14.167137
11.426537
8.756187
6.355545
4.447540
3.229385
2.800285
3.063324
3.770790
4.570480
5.197792
5.438164
5.165764
4.302032
2.808762
0.753586
-1.622543
-4.078331
-6.439484
-8.733734
-11.191223
-14.064697
-17.340515
-20.683189
-23.400352
-24.686768
-23.929031
-20.901932
-15.757477
-8.976074
-1.134155
7.153130
15.260536
22.525383
28.342285
32.221649
33.900024
33.472084
31.365318
28.199158
24.682648
21.339912
18.444206
16.034279
14.007988
12.278397
10.903137
9.957367
9.486656
9.355431
9.268677
8.864105
7.872467
6.218033
4.003632
1.405098
-1.420105
-4.405579
-7.512047
-10.766716
-14.231880
-17.975647
-22.083641
-26.547623
-31.154861
-35.446365
-38.765068
-40.354362
-39.631996
-36.364883
-30.698143
-23.182739
-14.615173
-5.806961
2.530228
9.906448
15.985535
20.584930
23.578568
24.919968
24.751373
23.402344
21.399399
19.278427
17.371094
15.742706
14.299362
12.910477
11.682022
10.829605
10.606567
11.015289
11.735703
12.200989
11.847778
10.393173
7.887909
4.711807
1.325989
-1.890549
-4.751999
-7.317215
-9.798355
-12.479431
-15.534821
-19.055405
-22.933197
-26.909119
-30.701050
-33.946014
-36.207626
-36.996384
-35.797546
-32.246979
-26.285141
-18.264786
-8.912674
0.861237
10.245392
18.606766
25.600815
31.031769
34.786011
36.818542
37.239761
36.337784
34.592438
32.521927
30.523315
28.758469
27.200058
25.655746
23.953400
22.044052
20.041168
18.157654
16.592514
15.386292
14.431213
13.489029
12.315186
10.728165
8.681992
6.214966
3.401215
0.309311
-3.039764
-6.582718
-10.179733
-13.633911
-16.690109
-19.276962
-21.490845
-23.606400
-25.914749
-28.590347
-31.516983
-34.271988
-36.202713
-36.557175
-34.773193
-30.619751
-24.283096
-16.334152
-7.535385
1.333588
9.624191
16.831314
22.608612
26.694778
29.002670
29.629639
28.904739
27.326462
25.467590
23.768951
22.438828
21.477234
20.754944
20.137558
19.541885
18.944016
18.351837
17.776276
17.148239
16.371674
15.322830
13.842941
11.856178
9.317940
6.333183
3.115189
-0.100716
-3.136284
-5.882240
-8.289726
-10.374344
-12.178413
-13.758774
-15.229843
-16.685089
-18.210823
-19.832802
-21.583359
-23.521088
-25.756996
-28.295296
-30.951065
-33.240349
-34.436035
-33.830765
-31.000259
-26.001869
-19.303848
-11.652153
-3.749947
3.794044
10.557396
16.254753
20.659431
23.673523
25.267883
25.565010
24.750801
23.115852
20.999107
18.740753
16.657990
14.945404
13.668602
12.804100
12.287781
12.090202
12.199875
12.547134
12.962677
13.207176
13.010895
12.269691
11.068077
9.545349
7.821030
5.928001
3.767784
1.287468
-1.467720
-4.323265
-7.028877
-9.400139
-11.384987
-13.022186
-14.420288
-15.703491
-16.981232
-18.360718
-19.979599
-21.938553
-24.237427
-26.689575
-28.905029
-30.329132
-30.455360
-28.899796
-25.547928
-20.602249
-14.448280
-7.572090
-0.472755
6.419922
12.700081
17.968414
21.870422
24.186111
24.830418
24.009605
22.087502
19.527889
16.812752
14.354916
12.458591
11.285404
10.847908
10.971336
11.404762
11.865841
12.129765
12.127850
11.854122
11.325562
10.487411
9.246876
7.494629
5.227737
2.533104
-0.398094
-3.345177
-6.141750
-8.702770
-11.010937
-13.124382
-15.151421
-17.182362
-19.238697
-21.294254
-23.236759
-24.985752
-26.494606
-27.767807
-28.774178
-29.366222
-29.194172
-27.802834
-24.877163
-20.386967
-14.680954
-8.362083
-2.059490
3.740067
8.787525
12.942162
16.112106
18.150650
18.966553
18.594719
17.254700
15.342838
13.306349
11.496731
10.039083
8.925390
8.066589
7.394073
6.964907
6.823782
6.970854
7.264059
7.342373
6.797369
5.372484
3.054943
0.175226
-2.745636
-5.189400
-6.882877
-7.839380
-8.344320
-8.802488
-9.596380
-11.021559
-13.252708
-16.212940
-19.626781
-23.006300
-25.716253
-27.084063
-26.645365
-24.175379
-19.762489
-13.760288
-6.740524
0.494713
7.118801
12.439625
16.116568
18.191217
19.051504
19.136036
18.712484
17.844913
16.447777
14.502186
12.125389
9.535334
6.939146
4.484299
2.268789
0.408588
-0.904108
-1.462305
-1.222233
-0.358656
0.706272
1.516567
1.781584
1.376362
0.346148
-1.168768
-3.046013
-5.193598
-7.556307
-10.063971
-12.693472
-15.427872
-18.311495
-21.346159
-24.429354
-27.385023
-29.882149
-31.441572
-31.544323
-29.716539
-25.678364
-19.530701
-11.820299
-3.394709
4.759054
11.873037
17.525434
21.600708
24.163845
25.344147
25.286503
24.197399
22.413403
20.352821
18.420879
16.851212
15.647141
14.688251
13.837654
13.075272
12.489498
12.188690
12.185673
12.354816
12.484287
12.354832
11.782444
10.696514
9.058025
6.907879
4.303589
1.267952
-2.136555
-5.796654
-9.562000
-13.215935
-16.617859
-19.771023
-22.825722
-25.949841
-29.213360
-32.378773
-34.879887
-36.039124
-35.264923
-32.241142
-27.031040
-19.976540
-11.587532
-2.438297
6.863331
15.648678
23.194843
28.816906
32.023544
32.631645
30.897552
27.486076
23.307720
19.299416
16.167614
14.225670
13.363052
13.214054
13.376694
13.578239
13.673187
13.566723
13.152878
12.297615
10.932304
9.137234
7.121651
5.145844
3.345139
1.664474
-0.137615
-2.306850
-4.987808
-8.145119
-11.603706
-15.144180
-18.620434
-21.995003
-25.240108
-28.261810
-30.825867
-32.494648
-32.769394
-31.276382
-27.886467
-22.910618
-16.953388
-10.652203
-4.393757
1.734573
7.896744
14.151062
20.206619
25.475590
29.217171
30.953960
30.610081
28.544937
25.291801
21.419979
17.443750
13.808601
10.961693
9.287334
8.979893
9.936695
11.725393
13.766390
15.490898
16.475027
16.496347
15.571131
13.855150
11.612169
9.130713
6.585899
3.994560
1.283911
-1.653082
-4.804066
-7.971918
-10.953192
-13.670597
-16.228977
-18.920830
-21.987368
-25.449085
-28.993467
-32.067314
-34.030090
-34.367645
-32.851833
-29.508717
-24.671490
-18.807343
-12.391272
-5.836980
0.546465
6.535494
11.866920
16.204967
19.188726
20.566952
20.343332
18.828552
16.527288
13.986735
11.645017
9.752744
8.431990
7.763821
7.811200
8.563885
9.918395
11.551762
13.082689
14.153774
14.557052
14.252746
13.316225
11.846006
9.873690
7.414518
4.485419
1.193672
-2.249239
-5.614508
-8.677631
-11.325633
-13.630581
-15.789996
-18.044361
-20.597082
-23.520374
-26.696312
-29.853132
-32.605946
-34.512383
-35.218746
-34.446609
-32.066837
-28.130409
-22.812078
-16.432318
-9.451529
-2.398034
4.128372
9.523621
13.359083
15.477134
16.044037
15.481403
14.294271
12.810995
11.193688
9.492051
7.785908
6.257313
5.156821
4.678790
4.813429
5.404720
6.199916
7.065782
7.947213
8.748243
9.277017
9.217851
8.271610
6.355818
3.716726
0.841305
-1.761928
-3.821909
-5.437466
-6.955641
-8.842216
-11.489916
-15.017282
-19.166807
-23.342825
-26.716396
-28.455418
-27.949804
-24.988884
-19.791771
-12.925634
-5.106574
2.934546
10.422217
16.690468
21.246979
23.874710
24.755350
24.378130
23.360458
22.234776
21.233944
20.268389
19.141485
17.673779
15.825480
13.725384
11.592125
9.666968
8.221975
7.428033
7.295924
7.654964
8.155672
8.356461
7.924077
6.717579
4.776453
2.286591
-0.499567
-3.362105
-6.101139
-8.578917
-10.749510
-12.682022
-14.612432
-16.820896
-19.504721
-22.581226
-25.717197
-28.308432
-29.703163
-29.365803
-26.984737
-22.592882
-16.476498
-9.180672
-1.396343
6.098673
12.651556
17.763428
21.168270
22.874004
23.053268
22.017097
20.107096
17.656834
14.946111
12.226133
9.694060
7.513408
5.823936
4.693565
4.102537
3.924944
3.966939
4.044898
4.051014
3.946518
3.716656
3.343405
2.735641
1.765755
0.356730
-1.452788
-3.539275
-5.793126
-8.199650
-10.897568
-14.062354
-17.841951
-22.143322
-26.619087
-30.675077
-33.635262
-34.928219
-34.205898
-31.446110
-26.886950
-20.931110
-13.993246
-6.478617
1.254206
8.788910
15.621346
21.212341
25.103819
27.102697
27.291294
25.994837
23.666912
20.792324
17.805206
15.104486
12.993566
11.662508
11.158161
11.336214
11.924656
12.598403
13.026947
12.879553
11.870197
9.835194
6.782530
3.009355
-1.003613
-4.730913
-7.805298
-10.102373
-11.787294
-13.141963
-14.449789
-16.031630
-18.145489
-20.987839
-24.530607
-28.414671
-31.950535
-34.247501
-34.499809
-32.245216
-27.518024
-20.766434
-12.736669
-4.250429
3.905742
11.156399
17.188450
21.887579
25.317440
27.550282
28.624588
28.533693
27.311989
25.094969
22.138958
18.730022
15.153798
11.704670
8.693227
6.531599
5.605575
6.065104
7.690042
9.880906
11.806720
12.765679
12.439249
10.868314
8.363839
5.294168
1.896820
-1.650043
-5.224384
-8.683585
-11.888075
-14.724330
-17.275135
-19.736820
-22.311102
-25.119623
-28.017174
-30.532154
-31.989008
-31.697521
-29.188910
-24.437885
-17.842537
-10.112345
-2.086287
5.539940
12.227278
17.575048
21.276506
23.154972
23.203705
21.719543
19.224396
16.339878
13.616396
11.393414
9.762707
8.692265
8.088923
7.863945
7.967630
8.355751
8.873346
9.344196
9.535070
9.227615
8.300245
6.779989
4.782825
2.531099
0.225286
-2.086489
-4.487097
-7.124468
-10.130222
-13.503418
-17.122471
-20.836319
-24.482315
-27.872225
-30.793457
-32.852165
-33.563477
-32.484493
-29.384064
-24.334612
-17.739147
-10.171722
-2.248154
5.439373
12.377052
18.126680
22.352859
24.919737
25.873520
25.381901
23.701040
21.154217
18.122965
15.094263
12.561510
10.884920
10.178215
10.221674
10.570778
10.746162
10.408310
9.402103
7.766636
5.632252
3.192221
0.704853
-1.588047
-3.470257
-4.880110
-5.911955
-6.862032
-8.048559
-9.771296
-12.245632
-15.439377
-19.112946
-22.749104
-25.640614
-27.025076
-26.364248
-23.462887
-18.571451
-12.295641
-5.324774
1.712837
8.297155
14.026657
18.559278
21.596146
23.029438
22.974081
21.757181
19.817242
17.574152
15.282991
13.095627
11.120777
9.445717
8.169781
7.366764
6.992058
6.943892
7.059404
7.154554
7.081253
6.730682
5.995226
4.838324
3.246262
1.206913
-1.254101
-4.101456
-7.281809
-10.712561
-14.292021
-17.943800
-21.616253
-25.208572
-28.533468
-31.189875
-32.635696
-32.325752
-29.917118
-25.374092
-19.031075
-11.405743
-3.055912
5.499611
13.806959
21.398340
27.733269
32.298332
34.735500
34.937996
33.141674
29.881117
25.795853
21.548313
17.640354
14.366177
11.849941
10.091949
9.002956
8.467438
8.332933
8.354162
8.252111
7.797792
6.842148
5.383299
3.458788
1.086861
-1.816338
-5.301039
-9.306274
-13.564238
-17.675121
-21.361675
-24.565393
-27.487375
-30.385847
-33.273304
-35.760544
-37.092636
-36.496635
-33.476238
-28.087719
-20.841825
-12.537086
-3.953436
4.330376
11.906225
18.481699
23.736843
27.382730
29.182133
29.131481
27.531157
24.902031
21.884855
18.960983
16.296339
13.808084
11.312262
8.694565
6.086359
3.799353
2.161795
1.343651
1.256948
1.568693
1.881084
1.798761
1.028704
-0.585474
-3.022417
-6.109402
-9.549311
-12.998987
-16.223562
-19.154655
-21.842903
-24.384373
-26.696266
-28.448509
-29.202965
-28.503269
-26.051865
-21.785767
-15.878645
-8.686468
-0.694609
7.482656
15.181616
21.761759
26.703213
29.688675
30.588877
29.539396
26.908745
23.272009
19.344492
15.820402
13.181019
11.540298
10.699297
10.233091
9.775349
9.145918
8.290131
7.238277
5.985334
4.458376
2.652021
0.628794
-1.427280
-3.327364
-4.973074
-6.449650
-7.982101
-9.848845
-12.303383
-15.406466
-18.955223
-22.514603
-25.436081
-27.031494
-26.743084
-24.296677
-19.773468
-13.614298
-6.425516
1.110673
8.317448
14.588244
19.452694
22.596382
23.967377
23.776978
22.423672
20.408152
18.167927
15.976575
13.967473
12.145199
10.479453
8.987169
7.737123
6.800015
6.245694
6.046497
6.085187
6.162347
6.097806
5.715146
4.948969
3.793598
2.253527
0.353145
-1.871447
-4.400613
-7.200744
-10.238386
-13.499727
-16.928667
-20.336689
-23.366096
-25.490406
-26.139301
-24.934584
-21.786865
-16.938175
-10.847063
-3.978156
3.252466
10.463915
17.226961
23.011421
27.244055
29.537769
29.822933
28.398396
25.862375
22.885710
20.015743
17.553150
15.522133
13.760386
12.017868
10.073084
7.749090
4.980743
1.768234
-1.838493
-5.741793
-9.733908
-13.548054
-16.899931
-19.588398
-21.614347
-23.131413
-24.437735
-25.764551
-27.225695
-28.816332
-30.509230
-32.354782
-34.444786
-36.768669
-39.009880
-40.584595
-40.769447
-38.974113
-34.981441
-29.050636
-21.774694
-13.820625
-5.770399
1.982285
9.147171
15.419207
20.444876
23.863600
25.467268
25.324200
23.851221
21.606071
19.171259
16.944500
15.019928
13.332012
11.769857
10.329159
9.133392
8.360155
8.062786
8.124590
8.327501
8.421925
8.262999
7.807047
7.058889
6.039337
4.734516
3.128090
1.286659
-0.644993
-2.505602
-4.170902
-5.598522
-6.887772
-8.243664
-9.893877
-11.990614
-14.500221
-17.035646
-18.946629
-19.416424
-17.776659
-13.783594
-7.784000
-0.633074
6.543646
12.676813
17.029276
19.250231
19.420950
17.946020
15.445684
12.613997
10.121809
8.448431
7.763073
7.958502
8.675238
9.525145
10.224115
10.654171
10.826887
10.816851
10.652496
10.289097
9.632254
8.560589
7.000408
4.979645
2.584782
-0.085655
-2.982687
-6.151642
-9.686825
-13.584002
-17.740288
-21.891424
-25.655067
-28.653460
-30.619982
-31.348949
-30.704659
-28.561241
-24.796085
-19.456472
-12.797712
-5.278141
2.506187
9.939962
16.505037
21.814913
25.582291
27.676395
28.099642
27.061457
24.950153
22.265781
19.490904
16.991112
14.988770
13.530800
12.580324
12.052309
11.830530
11.812212
11.863924
11.899773
11.810863
11.408844
10.470070
8.854870
6.557377
3.761074
0.780163
-2.066769
-4.630608
-6.934216
-9.158901
-11.497894
-14.104126
-17.103695
-20.605553
-24.622288
-28.996006
-33.280823
-36.749805
-38.579731
-38.131142
-35.148930
-29.839008
-22.749847
-14.580910
-6.078156
2.087753
9.353168
15.274532
19.582920
22.199360
23.214115
22.883526
21.566658
19.644218
17.538078
15.586578
13.917759
12.478745
11.089279
9.593304
8.040894
6.687263
5.863911
5.732090
6.197365
6.838036
7.154179
6.709328
5.240700
2.732353
-0.621780
-4.471870
-8.345528
-11.777885
-14.406155
-16.119732
-17.114052
-17.824776
-18.759048
-20.236950
-22.315662
-24.698662
-26.843021
-28.104038
-27.902580
-25.898190
-22.067215
-16.655731
-10.088432
-2.859806
4.571209
11.762440
18.180565
23.283566
26.580769
27.839813
27.198925
25.150017
22.378342
19.469387
16.813858
14.511284
12.512325
10.728489
9.056400
7.446144
5.880756
4.377716
3.027679
1.982052
1.328838
1.052265
0.950699
0.694794
-0.028557
-1.380394
-3.324448
-5.680038
-8.151714
-10.520206
-12.633545
-14.404793
-15.888416
-17.190960
-18.480076
-19.869484
-21.369568
-22.721115
-23.527012
-23.255753
-21.431351
-17.810295
-12.474514
-5.810463
1.601742
9.095299
16.085957
22.083328
26.828285
30.210861
32.226471
32.958801
32.542183
31.249027
29.387913
27.402046
25.720726
24.774269
24.918259
26.391174
29.241455
33.115204
37.259354
40.607605
42.227913
41.733025
39.698921
37.582512
37.266098
40.177551
46.614235
55.442085
64.489235
71.346481
74.170631
72.392593
66.888977
59.628448
53.053932
49.156693
48.777878
51.110626
53.842056
53.763702
47.899460
34.443939
13.439880
-13.343292
-43.283295
-73.838974
-103.645187
-133.093765
-164.152924
-199.382996
-240.076981
-284.497986
-326.924591
-358.630493
-370.363342
-355.609619
-312.988647
-246.851318
-165.712570
-79.483170
3.165878
76.295731
136.729309
183.262650
215.843170
235.272400
243.203766
242.078979
234.776260
223.871201
211.094269
197.161392
182.074020
165.419998
147.056473
127.419861
107.566696
88.962036
72.991058
60.451965
51.289566
44.566208
38.779877
32.366898
24.195358
13.832672
1.615936
-11.592758
-24.630707
-36.460144
-46.465836
-54.564392
-61.123688
-66.710236
-71.856216
-76.766602
-81.300964
-84.961029
-86.924957
-86.219559
-81.802185
-72.857849
-59.195129
-41.506775
-21.333405
-0.774445
18.141083
33.932007
45.870453
53.893921
58.336761
59.603302
58.163086
54.584259
49.576813
43.925171
38.284454
32.969818
27.826477
22.341705
15.948395
8.355927
-0.221558
-9.017242
-16.936188
-22.908081
-26.323334
-27.285187
-26.513275
-25.065887
-23.827301
-23.298706
-23.467346
-24.029633
-24.635040
-25.040527
-25.065033
-24.575134
-23.607819
-22.515747
-22.036835
-23.094391
-26.346008
-31.681030
-38.097839
-43.995605
-47.857300
-48.931519
-47.481873
-44.575348
-41.526581
-39.281158
-38.081818
-37.570679
-37.155396
-36.358307
-35.053680
-33.454651
-31.916046
-30.788727
-30.316132
-30.623779
-31.734131
-33.684265
-36.406769
-39.587494
-42.611633
-44.511169
-44.283142
-41.145233
-34.910645
-26.058472
-15.595276
-4.773499
5.243286
13.618774
20.008759
24.449249
27.254486
28.802124
29.474731
29.577972
29.413879
29.313538
29.621613
30.572937
32.080811
33.741852
34.936127
35.109467
34.060944
32.047485
29.630096
27.308441
25.301270
23.425964
21.347076
18.778503
15.681915
12.298279
9.047852
6.348694
4.426910
3.262115
2.590637
2.002960
1.050476
-0.595367
-2.921692
-5.533447
-7.684021
-8.406189
-6.793091
-2.215088
5.515015
16.101501
28.879578
42.965118
57.484436
71.622009
84.757751
96.375458
105.936707
112.884827
116.756653
117.345947
114.902466
110.079010
103.780914
96.807709
89.662628
82.447113
75.003113
67.190033
59.015564
50.638367
42.274292
34.083313
26.037292
18.003418
9.866394
1.550537
-6.909119
-15.403809
-23.787964
-31.938110
-39.805237
-47.366455
-54.673157
-61.784241
-68.758240
-75.708313
-82.723267
-89.770020
-96.582947
-102.588928
-106.986816
-108.962158
-108.012451
-104.141663
-97.886780
-90.186951
-82.065247
-74.407410
-67.778687
-62.437195
-58.417053
-55.631042
-53.916565
-53.083984
-52.974976
-53.412354
-54.137878
-54.821350
-54.997253
-54.216492
-52.137146
-48.717957
-44.213318
-39.119812
-34.007385
-29.383789
-25.608459
-22.895081
-21.306763
-20.823608
-21.314270
-22.547241
-24.285706
-26.305420
-28.497070
-30.881775
-33.577087
-36.748169
-40.489502
-44.749023
-49.191711
-53.174988
-55.825562
-56.247986
-53.813904
-48.361328
-40.317200
-30.548340
-20.091064
-9.873596
-0.620239
7.210327
13.349487
17.637329
20.077881
20.860107
20.391235
19.237000
18.025024
17.232239
17.114685
17.660583
18.669189
19.928467
21.291931
22.775635
24.503418
26.564758
28.905640
31.279541
33.312012
34.649902
35.120911
34.733398
33.600708
31.865356
29.599976
26.852295
23.684204
20.156616
16.308716
12.066040
7.268860
1.770813
-4.375916
-10.735535
-16.496521
-20.623169
-22.153259
-20.553833
-15.925049
-9.001648
-0.878418
7.286926
14.641602
20.703491
25.376160
28.707764
30.743805
31.448853
30.824768
28.999298
26.263550
23.009430
19.559845
16.035095
12.392456
8.552917
4.549286
0.618652
-2.908447
-5.775299
-7.939362
-9.590454
-11.115509
-12.873016
-15.143616
-18.044647
-21.514893
-25.374115
-29.384796
-33.327148
-37.126587
-40.873810
-44.768250
-48.999939
-53.557648
-58.147339
-62.204285
-65.034210
-66.005707
-64.648041
-60.700348
-54.129181
-45.058716
-33.733459
-20.481140
-5.727234
9.977295
25.950623
41.431732
55.579895
67.644409
77.066895
83.607788
87.414703
88.896606
88.689178
87.479858
85.912964
84.501038
83.532837
83.019501
82.675018
82.082550
80.852417
78.782379
75.887482
72.329956
68.304138
64.021240
59.679993
55.593170
52.153442
49.752167
48.533722
48.219391
47.999695
46.694092
43.148071
36.640717
27.190887
15.643982
3.247406
-8.705444
-19.303070
-28.187714
-35.419098
-41.155640
-45.361023
-47.795868
-48.270233
-47.023773
-44.869904
-42.988068
-42.493378
-43.875732
-46.812988
-50.390533
-53.574371
-55.699921
-56.646149
-56.631256
-55.932343
-54.585754
-52.437592
-49.296600
-45.270447
-40.810822
-36.623810
-33.392151
-31.543884
-31.180511
-32.138306
-34.074860
-36.594513
-39.299561
-41.775360
-43.548126
-44.216095
-43.520569
-41.565491
-38.796143
-35.839691
-33.180176
-30.895935
-28.483765
-25.149261
-20.124817
-13.145630
-4.605042
4.545044
13.169922
20.316772
25.394897
28.211884
28.898743
27.728027
25.044861
21.189362
16.498779
11.280029
5.848663
0.454071
-4.747589
-9.836090
-15.059875
-20.487488
-25.609192
-29.184998
-29.451630
-24.895569
-15.120087
-1.304718
14.070160
28.204910
39.115814
46.279037
50.454498
52.967667
54.868332
56.533539
57.874146
58.791656
59.534210
60.690125
62.880280
66.375504
70.965576
76.019760
80.664001
83.995270
85.326111
84.271469
80.798599
75.195633
67.934280
59.497635
50.209335
40.266251
29.945816
19.701874
10.229218
2.306931
-3.449417
-6.844543
-8.205933
-8.237366
-7.759094
-7.440231
-7.610825
-8.236343
-9.079681
-9.855515
-10.421570
-10.835815
-11.281525
-11.941986
-12.947372
-14.399002
-16.434662
-19.299377
-23.220337
-28.193848
-33.719574
-38.732147
-41.804199
-41.607697
-37.329071
-28.928314
-17.183044
-3.390381
11.044159
24.927002
37.507568
48.419464
57.565292
64.926056
70.442001
74.034882
75.721481
75.685516
74.323868
72.140640
69.617401
67.050293
64.512451
61.857391
58.781738
54.908569
49.835602
43.170502
34.678802
24.367798
12.558014
-0.153198
-13.014038
-25.372253
-36.781982
-47.142548
-56.645416
-65.669189
-74.624115
-83.669434
-92.547394
-100.481201
-106.296967
-108.712494
-106.801941
-100.311035
-89.841248
-76.710968
-62.545990
-48.900818
-36.887573
-27.097168
-19.644409
-14.364166
-10.958801
-9.130646
-8.545197
-8.829224
-9.570374
-10.335449
-10.746582
-10.564331
-9.762726
-8.513855
-7.084259
-5.736298
-4.569855
-3.560364
-2.548492
-1.354797
0.148315
1.925720
3.800537
5.443451
6.480865
6.602692
5.671478
3.772156
1.171173
-1.824707
-5.020020
-8.411591
-12.091644
-16.144592
-20.472473
-24.812317
-28.781708
-31.959320
-33.807648
-33.623016
-30.532562
-23.703156
-12.753448
1.948212
19.281342
37.589935
55.219421
70.744019
83.089203
91.365906
94.844757
92.973419
85.667938
73.481445
57.539185
39.228699
19.875061
0.557037
-17.796509
-34.322266
-48.258545
-59.040558
-66.553619
-71.191833
-73.623322
-74.545502
-74.420166
-73.478699
-71.889771
-69.980347
-68.160156
-66.868591
-66.383392
-66.729797
-67.761200
-69.246643
-70.810028
-71.952301
-71.951660
-69.948547
-65.207581
-57.422333
-46.873016
-34.364471
-20.981903
-7.727661
4.591614
15.411560
24.240204
30.548889
33.911255
34.166504
31.716278
27.474091
22.692047
18.483063
15.492432
13.734772
12.794067
12.183838
11.653595
11.243713
11.129456
11.394501
11.883484
12.235779
12.081116
11.152130
9.410156
6.982361
4.062988
0.790100
-2.807037
-6.811707
-11.339630
-16.481903
-22.261658
-28.570190
-35.121552
-41.446320
-46.870453
-50.606598
-51.818054
-49.861053
-44.467682
-35.917938
-25.006546
-12.839111
-0.526627
11.056763
21.427155
30.339249
37.618881
43.028061
46.318298
47.419769
46.656250
44.702194
42.422989
40.560486
39.503174
39.198090
39.321991
39.461121
39.232193
38.387283
36.812515
34.425156
31.241882
27.278564
22.623123
17.378342
11.770050
6.013306
0.309647
-5.298828
-11.015594
-17.225273
-24.283386
-32.244926
-40.743759
-49.056641
-56.409981
-62.247002
-66.254089
-68.214348
-67.714401
-64.111389
-56.780991
-45.563225
-31.020485
-14.502853
2.311348
17.911537
31.300167
42.065525
50.188587
55.759674
58.923679
59.834469
58.769146
56.209160
52.762993
49.040051
45.557575
42.603966
40.248718
38.377003
36.820229
35.437561
34.255718
33.421555
33.036598
33.065472
33.225300
33.027214
32.013985
29.914738
26.723087
22.701780
18.198122
13.458719
8.627676
3.691959
-1.411196
-6.742838
-12.376221
-18.428869
-24.877037
-31.514502
-37.743382
-42.557964
-44.801189
-43.494308
-38.211300
-29.340969
-18.001457
-5.643448
6.374084
17.134975
26.291203
33.819866
39.825443
44.326534
47.209141
48.340790
47.778984
45.816387
42.970325
39.842628
36.961899
34.645138
33.041981
32.106438
31.804089
32.107613
33.005806
34.420750
36.154503
37.798183
38.877384
39.031452
38.211449
36.742210
35.235229
34.308662
34.315460
35.241013
36.696640
38.169628
39.210320
39.565071
39.193787
38.174179
36.689259
34.986240
33.385563
32.224564
31.736641
31.899504
32.399208
32.643658
32.002884
29.998070
26.461472
21.467655
15.293098
8.195381
0.469051
-7.661255
-15.901009
-23.892517
-31.279076
-37.814728
-43.323883
-47.694939
-50.817551
-52.517807
-52.636375
-51.182274
-48.400307
-44.777992
-40.944496
-37.468407
-34.724854
-32.870094
-31.879211
-31.708557
-32.364426
-33.855164
-36.113556
-38.921051
-41.920700
-44.843918
-47.678421
-50.690552
-54.212677
-58.354156
-62.645203
-66.097534
-67.501831
-65.891968
-60.954208
-53.098740
-43.206421
-32.255356
-21.087601
-10.329224
-0.490891
7.814392
14.005798
17.667709
18.712708
17.467926
14.619995
10.957550
7.154526
3.674515
0.739883
-1.607239
-3.411362
-4.744720
-5.693756
-6.441345
-7.291855
-8.588181
-10.505417
-12.915955
-15.337006
-17.110397
-17.749924
-17.192200
-15.937012
-14.827278
-14.742714
-16.271706
-19.686394
-24.992737
-32.028854
-40.499382
-49.715508
-58.455299
-65.008942
-67.576996
-64.861191
-56.617661
-43.748314
-28.052231
-11.599327
3.855881
17.231972
28.038918
36.184700
41.659546
44.474068
44.740784
42.799736
39.265995
34.966591
30.726448
27.158791
24.618126
23.221375
22.951733
23.724255
25.367229
27.589867
29.920929
31.812294
32.725719
32.401470
30.928480
28.829021
26.998945
26.527012
28.355804
32.936325
39.912766
48.038864
55.431084
60.088608
60.522343
56.300003
48.118233
37.520939
26.344696
16.099167
7.691629
1.397256
-2.929937
-5.602360
-6.992522
-7.554598
-7.943409
-8.991827
-11.530272
-16.136093
-22.859409
-31.104378
-39.792816
-47.669037
-53.738586
-57.474007
-58.865543
-58.234116
-56.027687
-52.602051
-48.179100
-42.981209
-37.247665
-31.349607
-25.697405
-20.690151
-16.582657
-13.463573
-11.235710
-9.601325
-8.252880
-6.909253
-5.539504
-4.429787
-4.161707
-5.377197
-8.450272
-13.204803
-18.817947
-24.001951
-27.366709
-27.805552
-24.776047
-18.329853
-9.034306
2.251850
14.552544
26.951084
38.616676
48.876160
57.170547
63.120033
66.579300
67.764771
67.257416
65.948692
64.797180
64.421829
64.962517
66.011276
66.861038
66.897202
65.820389
63.835636
61.393536
59.017727
56.984070
55.268890
53.527122
51.207382
47.753128
42.721176
35.913944
27.370304
17.390305
6.374859
-5.314293
-17.453766
-30.029594
-43.125515
-56.734951
-70.526749
-83.710411
-94.989655
-102.898056
-106.152496
-104.125183
-97.025330
-85.916840
-72.365608
-58.036152
-44.325256
-32.205067
-22.283390
-14.928600
-10.245613
-8.067574
-7.895195
-9.029938
-10.675903
-12.279152
-13.521362
-14.426598
-15.120312
-15.747887
-16.366909
-16.956524
-17.461517
-17.798168
-17.898952
-17.663757
-17.086090
-16.271603
-15.459480
-14.934937
-14.847931
-15.124451
-15.554054
-15.980316
-16.476074
-17.404121
-19.244904
-22.287773
-26.297768
-30.437004
-33.424095
-33.990417
-31.252548
-25.078110
-16.085335
-5.481209
5.369926
15.250702
23.399246
29.437592
33.353180
35.257629
35.372925
33.967651
31.428391
28.255493
24.967468
22.006439
19.658081
18.034653
17.183868
17.050690
17.583572
18.685638
20.179169
21.810028
23.278671
24.278503
24.507431
23.740921
21.842270
18.796890
14.782791
10.050827
4.945358
-0.256409
-5.354263
-10.327194
-15.245270
-20.194962
-25.160873
-29.907837
-33.915802
-36.433640
-36.609192
-33.766327
-27.628281
-18.470520
-6.973816
5.861282
19.045425
31.624603
42.840607
52.054855
58.836380
63.028534
64.790955
64.631256
63.308228
61.637146
60.287994
59.691498
59.997528
61.122345
62.888428
65.137817
67.770142
70.767975
74.118530
77.656799
80.961304
83.281769
83.697556
81.290817
75.511917
66.272354
53.936401
39.190887
22.794113
5.426361
-12.294678
-29.837631
-46.641968
-62.162781
-75.919464
-87.548080
-96.735962
-103.112427
-106.181976
-105.399719
-100.366714
-91.203644
-78.661591
-64.075943
-49.022018
-34.863144
-22.471786
-12.185303
-3.940460
2.465515
7.198196
10.382294
12.219421
13.111328
13.620224
14.326675
15.614594
17.615997
20.202469
23.098358
26.062469
28.912277
31.539230
33.850311
35.722168
36.972076
37.397339
36.747971
34.783554
31.330292
26.361725
20.023804
12.652908
4.623444
-3.772293
-12.377594
-21.165649
-30.137222
-39.194794
-48.213821
-57.051147
-65.550522
-73.423431
-80.148087
-84.898926
-86.697906
-84.855240
-79.248871
-70.491943
-59.780029
-48.432587
-37.564590
-27.840881
-19.550323
-12.763565
-7.554367
-3.978470
-2.038681
-1.576569
-2.184387
-3.270782
-4.189621
-4.378403
-3.477158
-1.378448
1.765625
5.649414
9.883224
14.106384
18.018860
21.319626
23.741318
25.097214
25.344284
24.652466
23.364761
21.840271
20.335709
18.871613
17.287628
15.367752
12.992615
10.188644
7.130646
3.998459
0.822220
-2.534485
-6.399704
-11.052368
-16.562729
-22.614929
-28.547714
-33.376007
-36.125443
-36.079224
-32.936615
-26.833847
-18.280869
-7.984955
3.230042
14.525055
25.069214
34.132660
41.131592
45.698914
47.742493
47.391479
45.045410
41.325409
37.011505
32.959839
29.843231
28.060852
27.590576
28.097626
29.029907
29.947388
30.557159
30.772919
30.624512
30.122955
29.244202
27.903625
26.025970
23.569580
20.561584
17.084229
13.244659
9.239838
5.216156
1.266998
-2.577728
-6.339935
-10.089661
-13.890411
-17.844025
-22.079010
-26.738953
-31.827179
-37.076599
-41.864014
-45.273590
-46.345703
-44.355011
-39.052704
-30.710480
-19.996399
-7.889587
4.574585
16.374298
26.643494
34.691711
40.136047
42.886627
43.146484
41.354858
38.123749
34.150909
30.170074
26.831909
24.598450
23.624115
23.744965
24.551392
25.555359
26.368439
26.777618
26.713196
26.215607
25.347626
24.137512
22.513702
20.384552
17.609619
14.093567
9.834991
4.993561
-0.152374
-5.241516
-9.979065
-14.241623
-18.162506
-22.077866
-26.464874
-31.681198
-37.812408
-44.522156
-51.102615
-56.585358
-59.964554
-60.401306
-57.427094
-50.967133
-41.428665
-29.578064
-16.438721
-3.099716
9.428070
20.392654
29.336334
36.016861
40.349319
42.315430
41.956375
39.512894
35.474106
30.595810
25.746719
21.698120
18.882431
17.394089
16.977127
17.244858
17.790253
18.329178
18.647842
18.639191
18.164642
17.089081
15.268265
12.638687
9.247025
5.305664
1.105728
-3.016403
-6.879807
-10.494598
-14.022400
-17.626343
-21.356644
-25.079865
-28.610779
-31.870819
-35.035614
-38.379852
-42.131393
-46.154678
-49.837112
-52.232010
-52.364594
-49.510269
-43.436234
-34.394440
-23.037445
-10.213058
3.105240
16.005753
27.625168
37.301895
44.555237
49.154175
51.116562
50.715637
