1428496589.000000
64.000000
-0.000000
-0.000000
-0.000000
-0.000000
-0.000000
-0.000000
-0.000000
-0.000000
-0.000000
0.000064
0.008278
0.015027
0.011787
-0.007758
-0.039514
-0.064238
-0.051602
0.026833
0.182378
0.409229
0.664353
0.903363
1.100410
1.265611
1.444061
1.695082
2.062118
2.549904
3.140846
3.750292
4.301005
4.748727
5.107821
5.450467
5.875745
6.461081
7.220176
8.145468
9.062295
9.808291
10.291383
10.561237
10.820545
11.351559
12.386232
13.987194
16.119015
18.362179
20.315342
21.747770
22.763391
23.811707
25.508017
28.338806
32.405865
37.532433
42.861927
47.583763
51.246067
54.032871
56.744675
60.447430
65.950386
73.381134
82.327530
91.406448
99.332520
105.422974
109.967239
114.145111
119.478027
127.068367
135.592728
146.109207
158.321304
171.697098
184.659729
194.136276
196.129837
187.347549
167.059601
137.886841
104.978310
72.754852
42.912643
13.507141
-19.653229
-60.229797
-109.042450
-163.597412
-219.579773
-272.920807
-321.850677
-366.380890
-406.945404
-442.939392
-472.206299
-491.811676
-499.293915
-493.771240
-475.974945
-448.028381
-412.589722
-371.800964
-327.153870
-279.553162
-229.717438
-178.627350
-127.757477
-78.903290
-33.968231
5.622314
39.261780
67.154602
90.086304
109.011185
124.678558
137.433945
147.293869
154.091003
157.780304
158.615814
157.132568
154.024887
149.949005
145.362610
140.464905
135.255859
129.640991
123.568832
117.106895
110.413879
103.700462
97.134468
90.821114
84.774315
78.961227
73.338257
67.888397
62.631310
57.598587
52.831898
48.349636
44.177109
40.312958
36.745502
33.468929
30.480946
27.791965
25.397003
23.303108
21.497808
20.002680
18.803741
17.894054
17.234732
16.815180
16.625397
16.652407
16.880363
17.280859
17.883986
18.658659
19.583063
20.583630
21.654356
22.790985
23.983257
25.253912
26.584656
28.057745
29.644239
31.300797
32.876060
34.282326
35.382721
35.979382
35.817028
34.576393
32.108902
28.128136
22.412739
14.676048
4.898285
-6.809032
-20.193165
-34.908051
-50.566292
-66.487267
-82.149338
-96.360107
-108.803337
-119.047714
-126.660645
-131.237305
-132.446869
-130.971024
-126.156479
-117.798233
-106.061844
-91.476639
-74.670044
-56.441856
-37.685383
-18.889923
-1.326729
14.282383
27.362610
37.674263
45.144943
50.005798
52.619804
53.421494
52.850681
51.333004
49.346169
47.142952
44.858513
42.550209
40.254227
37.997280
35.787807
33.630978
31.454182
29.367899
27.383911
25.497358
23.687286
21.938726
20.252167
18.628298
17.061808
15.520501
14.068800
12.705889
11.443956
10.265731
9.161392
8.126229
7.162467
6.251398
5.389059
4.587815
3.855012
3.188210
2.603833
2.073773
1.609054
1.200280
0.846804
0.544253
0.289600
0.095518
-0.049687
-0.159139
-0.253122
-0.347582
-0.438613
-0.528837
-0.586403
-0.613121
-0.589541
-0.523384
-0.448093
-0.381153
-0.355908
-0.360148
-0.385663
-0.400714
-0.374687
-0.292839
-0.157743
-0.021005
0.072613
0.087321
0.025901
-0.073430
-0.130974
-0.067362
0.141995
0.456308
0.766781
0.950059
0.895024
0.624679
0.240283
-0.045134
-0.059279
0.293586
0.914962
1.586143
1.999923
1.957821
1.457771
0.710952
0.100698
-0.015888
0.515921
1.561701
2.708147
3.456802
3.456635
2.660307
1.416809
0.268085
-0.335595
-0.232058
0.331247
0.810649
0.630058
-0.699158
-3.430494
-7.717411
-13.418972
-19.846115
-25.629631
-28.853350
-27.777155
-21.657515
-11.434679
0.599510
11.511712
19.031746
22.276421
21.877710
19.295856
15.927903
12.532573
9.194599
5.805657
2.443055
-0.488176
-2.442894
-3.100000
-2.482524
-1.115905
0.286665
0.901805
0.284525
-1.538058
-3.925792
-5.689839
-5.568075
-2.538394
3.691428
12.316668
21.949165
31.054726
38.449337
43.571774
46.565083
47.847733
48.043213
47.596218
46.369408
44.218559
41.155312
37.473595
33.784611
30.862478
29.405649
29.886984
32.376160
35.794662
39.210732
41.983051
44.112228
45.866768
47.350071
47.838417
45.826462
39.717670
27.757496
10.048180
-11.598598
-34.661098
-57.214218
-78.824394
-100.577820
-124.638901
-146.588745
-163.669556
-173.575119
-175.866425
-172.820312
-168.777222
-168.017227
-172.506119
-180.906967
-189.552887
-195.688049
-198.261780
-198.507141
-198.531387
-199.332825
-199.655441
-196.518845
-187.032761
-169.982788
-147.330505
-122.491486
-98.946014
-78.746567
-61.915085
-46.949448
-31.945717
-15.721603
1.782310
19.167572
34.984947
48.496796
60.169113
71.418762
83.847366
98.283524
114.231384
130.168365
144.024551
154.511169
161.579681
166.279831
170.010468
173.676376
177.198578
179.581390
179.579254
176.318085
169.907654
161.416046
152.459534
144.543457
138.503998
134.371399
131.517120
129.095245
126.443878
123.353546
119.914490
116.235260
112.299744
108.026764
103.534119
99.178497
95.101868
90.606110
83.768005
72.012695
53.321228
27.721893
-2.016785
-31.076904
-54.354614
-68.431091
-72.539276
-68.309418
-58.336365
-44.818604
-28.923492
-11.119171
7.984985
27.045013
44.110138
57.351242
65.772919
69.675003
70.369629
69.555435
68.623337
68.161713
68.083313
67.916519
67.285477
66.165329
64.902817
64.006378
63.882507
64.626892
65.968353
67.391762
68.291641
68.154037
66.674004
63.740051
59.314507
53.333263
45.646961
35.977417
24.156166
10.282555
-5.190845
-21.489338
-37.796524
-53.431908
-67.996201
-81.269791
-93.052246
-102.894440
-110.054688
-113.667030
-112.954849
-107.589035
-97.805893
-84.533974
-69.150612
-53.329666
-38.681351
-26.463074
-17.418167
-11.748306
-9.264008
-9.519470
-12.075592
-16.349854
-21.604660
-26.924744
-31.287537
-33.857346
-34.239609
-32.688690
-29.939545
-26.897552
-24.218262
-22.106415
-20.411316
-18.923615
-17.702972
-17.027985
-17.306519
-18.679962
-20.954590
-23.602722
-26.119263
-28.270325
-30.179016
-32.323029
-35.156616
-38.989716
-43.785767
-49.204102
-54.787201
-60.056854
-64.754089
-68.773102
-72.299438
-75.677368
-79.343292
-83.651459
-88.654114
-93.967987
-98.611450
-101.286530
-100.535553
-95.267365
-85.057617
-70.336121
-52.349548
-32.816589
-13.629333
3.602814
17.694977
28.122925
34.868744
38.337494
39.055145
37.481812
33.943390
28.641327
21.990173
14.678162
7.692627
2.028442
-1.647491
-3.234955
-3.131195
-1.941772
-0.252533
1.601776
3.450958
5.185181
6.692230
7.823883
8.489929
8.600555
8.098145
6.860962
4.758728
1.684174
-2.329132
-7.026581
-11.974213
-16.655029
-20.634521
-23.728546
-26.131409
-28.424164
-31.423126
-35.840851
-41.827698
-48.851776
-55.592865
-60.442505
-61.924805
-59.179108
-52.073853
-41.147003
-27.437073
-12.201752
3.070038
16.969452
28.277435
36.253143
40.781494
42.262299
41.399963
38.912750
35.386322
31.262482
26.986755
22.948090
19.473343
16.729187
14.642319
13.096466
11.947098
11.325394
11.363846
12.258255
13.963638
16.227737
18.707230
20.892487
22.261810
22.114273
19.766708
14.823395
7.614410
-0.656021
-8.217468
-13.366013
-15.392334
-14.843567
-13.379181
-12.884186
-14.651718
-18.789398
-24.284561
-29.574280
-33.114502
-33.814148
-31.087494
-24.780212
-15.030609
-2.387207
12.126556
27.035370
40.582123
51.322052
58.321350
61.521835
61.525803
59.305069
55.769974
51.439560
46.352219
40.100128
32.159119
22.105759
9.948807
-3.841553
-18.530441
-33.273056
-47.541786
-61.119026
-74.122871
-86.629280
-98.503983
-109.268990
-118.200752
-124.757622
-128.834137
-130.879227
-131.753937
-132.308746
-133.014053
-133.658234
-133.407288
-131.132980
-125.906342
-117.384186
-106.000412
-92.704460
-78.597572
-64.496506
-50.882484
-37.987633
-25.879652
-14.512794
-3.398773
8.543465
22.944515
41.353588
64.422638
91.277168
119.442665
145.654877
167.006439
181.952118
190.653915
194.497345
195.185303
193.904678
191.004242
186.227722
179.210114
170.011688
159.167755
147.532623
135.867020
124.519104
113.331696
101.914963
89.894318
77.273102
64.404465
51.954117
40.520950
30.267578
20.830338
11.406250
1.123611
-10.454880
-22.982697
-35.364990
-46.029480
-53.433350
-56.542542
-55.148514
-49.845917
-41.919525
-33.016754
-24.880005
-19.022079
-16.496658
-17.582382
-21.725540
-27.618622
-33.490723
-37.566116
-38.451218
-35.423721
-28.501465
-18.364548
-6.097282
7.068069
20.034775
31.918076
42.064491
49.997314
55.404701
58.141998
58.282784
56.146172
52.217415
46.946709
40.623878
33.319771
25.107986
16.266891
7.467796
-0.328598
-6.277702
-9.995483
-11.787209
-12.432243
-12.965157
-14.220810
-16.602818
-20.023533
-23.947792
-27.531273
-29.759834
-29.715343
-26.797478
-21.063740
-13.314838
-4.892891
2.680367
8.150101
10.823215
10.548841
7.585491
2.496134
-3.894833
-10.492132
-16.008129
-19.230301
-19.489841
-17.021931
-13.020746
-9.257687
-7.451723
-8.557413
-12.468697
-18.135998
-24.054728
-28.665653
-30.781012
-29.729038
-25.301550
-17.709974
-7.506516
4.430262
16.970871
28.822136
38.805164
46.053364
50.251984
51.651295
50.969810
49.066082
46.649899
44.111687
41.370396
38.116329
34.052891
29.286751
24.324997
19.996422
17.080956
15.983688
16.661644
18.733376
21.834892
25.734779
30.266418
34.906525
38.436348
38.948715
34.333366
23.202972
5.551064
-16.987015
-41.607941
-65.220001
-85.365761
-100.625656
-110.678200
-115.997681
-117.386650
-115.769226
-112.042488
-107.177460
-102.194168
-98.006104
-95.192459
-93.706528
-92.776810
-91.048172
-87.023636
-79.611694
-68.491425
-54.263275
-38.098740
-21.365707
-5.146362
9.773651
22.921158
33.965958
42.663361
49.021347
53.324463
56.071411
57.714401
58.487442
58.308609
57.014328
54.606445
51.459625
48.322174
45.963165
44.898117
45.176971
46.414078
48.016037
49.456955
50.446182
50.828430
50.495369
49.033165
45.812538
40.046532
31.130737
18.891441
3.708427
-13.564590
-31.964096
-50.638603
-69.068024
-86.883598
-103.764961
-119.376213
-133.514191
-146.300873
-158.235352
-170.011047
-182.007172
-193.899826
-204.467133
-211.913361
-214.380310
-210.631943
-200.543701
-185.027634
-165.734024
-144.198288
-121.153091
-96.086380
-67.454567
-33.550560
6.421303
51.285355
97.971497
142.154343
179.669449
207.733017
225.429947
233.537903
233.693634
227.680069
217.033524
203.069977
187.078842
170.365448
154.205582
139.559235
127.086716
117.034966
109.577850
104.897873
103.330093
105.244247
110.905487
120.083244
131.809982
144.363220
155.591995
163.617783
167.482361
167.524506
165.047516
161.690018
158.574005
155.734497
152.185135
146.331421
136.571869
121.793373
101.683929
76.926056
49.145226
20.910294
-4.764778
-24.962784
-37.744019
-42.718925
-41.177322
-35.795425
-29.770447
-26.014771
-26.300720
-31.030411
-39.402939
-49.963303
-61.174561
-71.958832
-81.765503
-90.446869
-97.973175
-104.269043
-109.272125
-112.986298
-115.617035
-117.515686
-118.938324
-120.023621
-120.695801
-120.837494
-120.341675
-119.210693
-117.472748
-115.141449
-112.249695
-108.819885
-104.957520
-100.815033
-96.601624
-92.605194
-89.189484
-86.800995
-85.929260
-86.945801
-89.948059
-94.596863
-100.139130
-105.677826
-110.430756
-114.052673
-116.747742
-119.175385
-122.207825
-126.589111
-132.522888
-139.482330
-146.109741
-150.534119
-150.759949
-145.306915
-133.557617
-115.954742
-93.820831
-68.983093
-43.347565
-18.583496
3.962311
23.280090
38.633331
49.602509
56.226044
58.992828
58.822754
56.723022
53.695267
50.480026
47.550079
45.179886
43.592316
43.026749
43.671646
45.593414
48.548920
52.109406
55.733215
58.900818
61.282867
62.742722
63.216919
62.649673
60.967468
58.145676
54.263649
49.510437
44.167336
38.374115
32.137436
25.386597
18.032696
10.243107
2.300365
-5.516621
-13.190166
-20.859097
-28.683548
-36.663189
-44.250481
-50.434883
-53.789639
-52.815441
-46.291653
-33.616631
-15.035589
8.372540
34.810333
62.185413
88.474487
111.870819
130.859589
144.173340
150.859406
150.461838
143.364944
130.955566
115.461960
99.401291
84.965134
73.470261
65.209091
59.732010
56.092445
53.456429
51.116150
48.676964
45.829636
42.345772
37.978233
32.368027
25.103844
15.745041
4.002541
-10.150101
-26.414406
-44.257393
-63.120079
-82.519600
-102.318367
-122.619209
-143.690887
-165.799988
-189.046127
-213.219971
-237.661179
-261.232361
-282.273071
-298.943787
-309.547668
-313.017639
-309.171570
-298.601685
-282.310547
-261.205109
-235.897324
-206.623779
-173.508591
-136.774567
-97.113617
-55.733063
-14.358459
24.940277
60.085663
89.323212
111.622040
126.760223
135.302368
138.299591
137.020111
132.810608
126.896545
120.502991
114.686432
110.257568
107.648285
106.966919
108.029236
110.471619
113.820374
117.462952
120.646912
122.634766
122.917175
121.335205
118.102783
113.625000
108.139404
101.601379
93.626343
83.952820
72.619751
60.287415
47.860596
36.196228
25.574280
15.520447
5.113220
-6.560425
-19.806396
-34.230347
-48.768127
-61.938904
-71.990234
-77.035095
-75.274231
-65.369751
-47.175781
-22.064514
7.114624
36.690552
63.243469
84.471069
99.572571
108.937500
113.606689
114.604736
112.693848
108.458801
102.379395
95.044006
87.056702
79.025452
71.382202
64.556702
58.712463
53.888000
49.941956
46.604370
43.664246
40.986694
38.572632
36.380249
34.241760
31.721985
28.177124
23.083313
16.122009
7.478455
-2.275574
-12.390381
-22.175415
-31.327942
-39.999817
-48.700867
-58.026733
-68.516846
-80.366394
-93.439453
-107.167725
-120.550232
-132.114746
-140.023987
-142.294250
-137.185547
-123.701538
-101.883789
-72.963684
-39.192627
-3.356323
31.662354
63.453491
90.258362
111.131714
125.820190
134.676208
138.478638
138.155457
134.650940
128.772156
121.204407
112.542725
103.465393
94.778687
87.343018
81.895813
78.730652
77.645874
77.924866
78.676697
79.124756
78.928955
78.083313
76.695679
74.766479
72.029419
68.056946
62.481445
55.154236
46.159973
35.611206
23.580200
10.075745
-4.656677
-20.043213
-35.163940
-49.112366
-61.437805
-72.409241
-82.992371
-94.404907
-107.553284
-122.394409
-137.755188
-151.355469
-160.326233
-161.875000
-154.029358
-136.292847
-109.837524
-77.307739
-42.106567
-7.611206
23.577087
49.991089
71.079956
86.980164
98.128540
105.059692
108.361389
108.720276
106.902893
103.594666
99.376709
94.669861
89.865173
85.375061
81.681335
79.259155
78.466125
79.467712
82.078491
85.867249
90.136108
94.100708
97.091370
98.677734
98.626282
96.709351
92.559753
85.623108
75.405945
61.731018
45.033508
26.370178
7.135254
-11.294373
-27.953918
-42.356079
-54.470093
-64.565491
-73.106445
-80.726196
-88.172974
-96.255432
-105.600464
-116.490845
-128.654114
-141.270752
-152.960022
-161.948914
-166.301453
-164.243164
-154.663879
-137.337524
-113.047607
-83.455078
-50.756042
-17.390503
14.358215
42.552979
65.820221
83.370819
94.940338
100.666779
100.933014
96.233643
87.245850
74.825195
59.983826
43.936890
27.862885
12.747223
-0.720490
-12.169037
-21.479950
-28.814667
-34.614319
-39.642975
-44.854767
-51.172455
-59.124664
-68.722504
-79.456146
-90.582825
-101.484772
-111.949097
-122.163971
-132.497742
-143.052216
-153.475830
-162.832397
-169.939026
-173.820557
-174.234436
-171.845276
-168.157074
-165.020447
-164.001862
-165.821838
-170.064026
-175.400055
-179.938568
-181.868958
-179.826843
-173.134033
-161.774231
-146.283020
-127.529236
-106.472168
-83.776062
-59.444824
-32.656799
-1.882874
34.339355
76.455200
123.017517
170.478638
213.918457
248.507202
271.048584
281.039917
280.741028
274.255737
266.213440
260.507324
259.545227
264.139343
273.751404
286.926880
301.575745
315.314941
325.670837
330.541321
328.574951
319.520752
304.152344
284.088745
261.241577
237.244629
213.180115
189.378479
165.565857
141.081360
115.278809
87.937134
59.510498
31.281799
4.987305
-17.735474
-36.118896
-50.625702
-62.825256
-74.827606
-88.364380
-104.106171
-121.379852
-138.364594
-152.498230
-161.110870
-162.042542
-154.142944
-137.680023
-114.378113
-87.064850
-59.044830
-33.266113
-11.763916
4.350708
14.822739
19.961166
20.467163
17.372147
11.980118
5.591354
-0.821442
-6.810471
-12.431137
-17.914795
-23.339005
-28.441284
-32.691177
-35.531517
-36.662743
-36.152035
-34.493248
-32.479980
-31.010952
-30.896309
-32.684200
-36.469933
-41.845451
-48.103130
-54.470818
-60.403099
-65.793182
-70.939758
-76.441444
-82.946556
-90.977173
-100.712570
-111.919106
-123.928291
-135.711685
-146.218903
-154.590256
-160.465088
-164.037018
-165.762924
-165.986740
-164.379044
-159.659607
-149.619537
-131.727814
-103.978409
-65.766205
-18.457901
34.517654
88.202835
137.045898
175.928543
201.089233
210.683212
204.956863
186.107681
157.840652
124.644394
90.919464
60.099365
34.109146
13.338043
-2.910980
-15.787460
-26.351807
-35.364365
-43.297760
-50.566696
-57.526016
-64.401123
-71.181427
-77.504166
-82.812668
-86.600159
-88.619003
-88.954941
-87.965881
-86.161911
-84.063568
-82.145035
-80.829208
-80.471115
-81.405716
-84.006805
-88.584915
-95.304245
-103.845078
-113.353485
-122.486084
-129.911972
-134.858582
-137.526291
-139.037155
-140.933029
-144.378143
-149.480484
-155.004517
-158.716721
-158.044083
-150.888245
-136.284973
-114.629883
-87.516373
-57.313950
-26.556946
2.588730
28.689072
51.059494
69.717545
84.987175
97.327477
107.088181
114.526970
119.893982
123.522690
125.938705
127.736694
129.496262
131.564255
133.952393
136.428955
138.684052
140.627151
142.376572
144.350037
146.918549
150.242554
154.089584
157.906860
160.926712
162.324844
161.439636
157.922989
151.987534
144.405472
136.383804
129.124405
123.290459
118.658264
114.262466
108.860344
101.537384
92.213287
81.450462
70.285278
59.842014
51.186043
45.279655
42.593819
42.456017
42.418659
38.403580
25.854107
1.808563
-33.290455
-75.186249
-116.907562
-151.288055
-173.312088
-181.289719
-176.437378
-161.481506
-139.219666
-111.925201
-81.575417
-50.356308
-20.894547
4.165604
22.945343
34.941620
41.121094
43.470871
44.202728
44.962814
46.518906
48.743591
51.033325
52.770554
53.567108
53.373138
52.278854
50.267761
47.041473
42.050995
34.633606
24.346741
11.142975
-4.500000
-21.659088
-39.173645
-55.953339
-71.269226
-84.884003
-97.003174
-108.016785
-118.275696
-127.844025
-136.589661
-144.309998
-150.932404
-156.557251
-161.374451
-165.480042
-168.735291
-170.682190
-170.502625
-167.163635
-159.538727
-146.708374
-128.243073
-104.509491
-76.738007
-46.888367
-17.245911
10.101013
33.536346
52.175232
65.649628
74.036987
77.711700
77.222748
73.344543
66.974518
59.123901
50.645386
42.233673
34.387390
27.455566
21.746948
17.486969
14.830902
13.665527
13.707794
14.459290
15.415222
16.178818
16.515686
16.464661
16.243881
16.233261
16.898376
18.698532
21.942932
26.575439
32.058182
37.343903
41.043777
41.706619
38.284119
30.424057
18.664703
4.318237
-10.864395
-25.207397
-37.449951
-46.907684
-53.415115
-56.969299
-57.432465
-54.412735
-47.429230
-36.267029
-21.375793
-3.986206
14.107971
30.926239
44.784515
54.526459
59.584457
59.847885
55.555542
47.240692
35.808823
22.530838
8.924271
-3.558411
-13.794067
-21.265121
-26.076736
-28.607956
-29.259628
-28.052597
-24.536926
-18.016754
-8.011658
5.191574
20.321106
35.163422
47.216064
54.446503
55.921356
52.010818
44.194824
34.458405
24.572144
15.643570
7.841415
0.595886
-7.002533
-15.753113
-25.821625
-36.576691
-46.792450
-55.254349
-61.477280
-66.201538
-71.278595
-78.934555
-90.684006
-106.416351
-124.134796
-140.369812
-151.210617
-153.405518
-145.172455
-126.613007
-99.532616
-66.953239
-32.313362
1.169624
30.936745
55.271748
73.225716
84.392639
88.835518
87.039841
79.875687
68.535355
54.300938
38.335854
21.554966
4.653337
-11.743890
-27.067730
-40.963623
-53.536007
-65.390503
-77.330322
-89.785950
-102.267807
-113.435905
-121.609581
-125.774879
-126.171692
-124.333008
-122.275665
-121.417664
-121.822906
-122.205399
-120.672684
-115.641464
-106.488312
-93.460068
-77.055969
-57.444000
-34.172028
-6.514114
25.883835
62.351578
101.052689
139.458679
175.225769
206.986084
234.509338
258.440674
279.457428
297.613922
312.213196
322.166870
326.685455
325.751343
320.202698
311.361542
300.509827
288.491364
275.503876
261.306702
245.433563
227.451843
207.132721
184.566895
160.178436
134.650482
108.647156
82.789246
57.677536
33.957092
12.398712
-6.319122
-21.900085
-34.757141
-45.923065
-56.699051
-67.900146
-79.443329
-90.410690
-99.458008
-105.563141
-108.440536
-108.723404
-107.727493
-107.073120
-108.161705
-111.748024
-117.593376
-124.365959
-129.849152
-131.660980
-127.885643
-117.649643
-101.347260
-80.324043
-56.508865
-31.931818
-8.470587
12.245801
28.926832
40.675789
47.199047
48.780514
46.294132
40.932598
34.051254
26.908775
20.416000
15.060646
10.850937
7.528366
4.764771
2.398186
0.411766
-1.130638
-2.246910
-3.110832
-4.007423
-5.238480
-7.106026
-9.931122
-14.047577
-19.739563
-27.052307
-35.646255
-44.830978
-53.775955
-61.843201
-68.813156
-74.990860
-81.018799
-87.677597
-95.554565
-104.720963
-114.516769
-123.466690
-129.577820
-130.837128
-125.942886
-114.743729
-98.301819
-78.464203
-57.242081
-36.352158
-17.066345
-0.381348
12.905197
22.168015
27.206192
28.295486
26.120529
21.404831
14.657608
6.060577
-4.288589
-15.996857
-28.128311
-39.291519
-48.108002
-53.766342
-56.410828
-57.050919
-57.014923
-57.243896
-57.782188
-57.700203
-55.584717
-50.119820
-40.664757
-27.398254
-11.097733
7.128273
25.848358
43.043633
55.902176
61.195961
56.251328
40.259651
14.801720
-16.402905
-48.807789
-78.584389
-103.410255
-122.549011
-136.089264
-144.236115
-147.106705
-145.004578
-138.676743
-129.310501
-118.167023
-106.009598
-92.940811
-78.683243
-63.019676
-46.271812
-29.293518
-13.273331
0.580826
11.431602
19.109848
24.213150
27.913849
31.668945
36.670471
43.429871
51.740387
60.810745
69.776245
77.967194
84.770065
89.575745
91.728088
90.708527
86.590668
80.224274
73.014496
66.386505
61.186554
57.308258
53.906830
49.921967
44.467010
37.195862
28.234131
17.899841
6.633728
-4.946106
-15.895905
-24.772095
-29.777252
-29.167419
-21.691589
-6.957397
14.282349
40.367157
69.069153
98.007233
125.114990
148.740509
167.807800
181.784210
190.769470
195.519989
197.521210
198.760590
201.067749
205.359772
210.788696
214.598022
212.715790
200.904877
176.230499
138.258057
89.335541
34.017212
-21.999481
-73.203674
-115.365387
-145.921448
-164.002899
-170.072876
-165.559601
-152.646179
-134.166016
-113.364502
-93.531891
-77.390106
-66.496857
-60.823151
-58.942017
-58.694092
-58.160645
-56.498657
-54.181641
-52.681122
-53.546112
-57.446899
-63.542145
-69.409637
-71.682220
-67.149109
-53.794617
-31.534454
-2.276276
30.773987
64.204620
95.317108
122.668579
145.940918
165.333588
180.939423
192.428497
199.139832
200.494202
196.553497
188.207397
176.974670
164.567505
152.438690
141.558624
132.481018
125.391449
119.901245
114.554535
106.691345
93.004333
70.785370
39.361572
0.831482
-40.589920
-80.316650
-115.265076
-144.885056
-170.582321
-194.250687
-216.812363
-237.686874
-255.394928
-268.773285
-277.756226
-283.218628
-286.185974
-287.060059
-285.385620
-280.401978
-271.800659
-260.191010
-246.944489
-233.539474
-220.836304
-208.571106
-195.270554
-178.709473
-156.635025
-127.443771
-90.802307
-47.876877
-1.112015
46.227158
90.713272
129.446823
160.545502
183.410950
198.753540
208.196533
213.714783
217.105988
219.538330
221.492615
223.036713
224.184204
225.145203
226.312195
228.006348
230.438690
233.824127
238.484344
244.826324
252.786530
261.102905
266.975403
266.466553
255.580292
231.738007
194.692505
146.470703
90.728210
31.754410
-26.166809
-79.073441
-123.333832
-155.938309
-175.247787
-181.736664
-178.186432
-168.955505
-158.754272
-151.474457
-149.375626
-152.814636
-160.559860
-170.261276
-179.138077
-184.437302
-183.748962
-175.337158
-158.383713
-133.286880
-101.228058
-63.749405
-22.618958
19.928802
61.070274
97.488708
125.719971
142.758881
145.998260
134.649811
110.558403
77.729538
41.152412
5.749840
-23.911705
-44.196289
-52.946716
-51.141331
-41.295521
-25.677238
-5.974510
16.086868
38.596462
60.021599
79.068985
94.480103
102.816376
101.496193
91.378235
76.145256
59.924877
45.381874
33.685097
24.509853
16.164818
3.496655
-17.866159
-48.338860
-84.974365
-124.030182
-162.591064
-197.762833
-226.771027
-230.870697
-201.004898
-150.185394
-102.395363
-72.101906
-60.056156
-59.536057
-61.422733
-58.168240
-45.869743
-27.295959
-6.937523
13.258873
32.803978
54.286316
77.568901
100.978996
122.203712
138.634033
146.127930
142.329742
129.022415
110.994453
92.696556
76.234718
61.941841
49.641159
38.989685
28.326164
16.773155
5.370979
-3.680901
-9.804283
-13.627731
-15.652481
-15.956253
-14.687256
-12.594208
-9.986328
-6.375244
-0.843903
4.932266
9.426010
12.779282
15.882904
18.767075
20.279572
19.230591
14.918289
7.765961
-4.544250
-22.274323
-42.680664
-62.499100
-80.764908
-98.186996
-115.412964
-132.330734
-147.197174
-162.580414
-179.490097
-196.058685
-209.792160
-219.800537
-226.001617
-227.612869
-224.374237
-191.125641
-125.734375
-50.528458
8.820526
43.416901
58.828033
65.031433
70.009750
73.700302
75.956635
70.101715
52.512695
25.951355
-3.006248
-28.675598
-48.438721
-56.642342
-52.924973
-39.282417
-23.622665
-11.905304
-5.548996
-3.053398
-2.927219
-4.127335
-5.558273
-7.295567
-5.626656
-0.244919
8.386528
19.137180
29.135384
37.117340
41.840393
43.318882
39.634071
31.322483
20.006487
9.601312
4.406550
6.420320
14.184484
25.323376
38.771481
53.736580
70.884232
91.251099
116.611717
148.603027
188.069244
221.725830
237.553528
235.001678
222.552658
208.431686
195.697449
184.404602
173.606934
162.094284
153.867111
146.495544
139.890076
133.719543
127.233612
119.794769
111.199608
101.124229
88.911987
71.037155
48.575134
25.181950
4.052559
-12.963799
-25.196983
-33.043488
-37.967491
-42.000778
-46.765968
-52.106277
-56.196747
-57.662003
-56.226562
-52.481735
-47.403137
-42.151169
-37.853531
-35.294052
-34.371262
-34.166641
-33.782471
-32.397903
-29.037048
-22.849243
-13.620209
-2.183685
9.552582
19.412750
25.676758
27.426605
24.874481
19.314880
12.489868
5.934082
0.582977
-3.236847
-5.521942
-6.470490
-6.674316
-7.044281
-8.664581
-12.373108
-18.259399
-25.405334
-32.267975
-37.348755
-39.995270
-40.662964
-40.531860
-40.827087
-42.187073
-44.383057
-46.563293
-47.734741
-47.052917
-44.037231
-38.658630
-31.332825
-23.133545
-16.115295
-13.274719
-18.224731
-34.317200
-63.438354
-104.859741
-154.886475
-207.456238
-255.724365
-293.975769
-319.067505
-330.952515
-331.971313
-325.233215
-313.233398
-297.260864
-277.695984
-255.133972
-231.352600
-209.579163
-193.519470
-185.714783
-185.969788
-190.736023
-194.096832
-189.792389
-173.566986
-144.525665
-105.280548
-60.970886
-17.742493
18.913025
45.407990
61.111847
68.781067
73.974609
83.287537
101.628845
129.939362
164.230652
197.059601
220.016083
227.447144
218.232483
195.563385
165.174591
132.973022
103.421616
78.913193
60.088394
45.823486
34.079330
22.396896
8.688828
-7.866875
-26.276466
-44.072182
-58.401718
-67.023300
-70.361427
-70.289116
-69.434471
-69.832825
-71.616249
-72.743874
-69.498749
-57.709831
-33.492596
2.610167
47.653542
95.207825
136.486237
162.658081
167.787430
151.279083
118.551559
81.614029
49.696465
31.554771
30.675522
44.836975
68.022690
93.421921
115.957001
133.264130
148.077728
157.240829
160.409103
156.943924
146.859940
131.938568
115.668961
102.137009
94.489212
97.778992
106.480392
118.152435
130.781677
143.968002
158.876205
177.479935
201.126587
204.332870
217.450516
232.493027
245.745331
254.098175
255.590836
249.350189
235.356415
213.618317
184.357101
152.119095
113.585770
69.992592
23.732506
-21.473969
-61.927364
-95.067551
-121.228966
-142.273865
-157.405640
-171.942429
-188.251556
-206.622528
-224.539948
-237.930679
-242.394028
-236.541016
-220.399338
-193.284088
-160.016251
-126.432251
-97.339928
-74.311707
-56.819542
-42.961151
-33.766594
-29.904114
-29.907608
-33.991577
-44.127472
-61.103683
-83.013184
-106.855164
-129.409760
-152.051697
-176.028488
-201.129257
-205.540390
-178.572510
-130.288345
-80.355286
-51.920624
-38.143715
-33.950760
-37.404488
-42.461327
-48.150978
-57.968590
-74.326584
-95.955620
-119.353127
-140.050461
-158.169907
-173.943604
-187.611420
-200.557541
-216.410080
-237.054382
-260.506866
-282.326019
-296.765808
-301.503418
-293.813599
-272.755371
-240.622101
-202.719910
-163.832245
-125.501205
-87.420929
-48.047012
-7.522537
36.812958
85.979828
138.026337
189.610901
238.507675
285.688538
331.881958
376.587708
416.793915
453.595703
486.196533
511.386230
526.121460
529.702759
525.811523
517.263123
505.207001
488.898956
473.235870
459.855621
445.527374
425.295929
395.514923
357.678589
313.178009
262.730530
171.203247
35.797607
-115.177887
-247.330688
-339.178680
-404.654968
-454.385437
-496.006287
-530.680603
-559.026001
-575.339417
-576.910339
-565.348694
-543.593018
-513.359131
-471.942169
-418.307953
-353.698212
-281.676575
-202.120758
-117.796295
-35.121216
38.641174
98.292603
143.986115
177.287506
200.365143
215.215454
226.445618
236.316376
244.111481
248.017670
247.366730
244.675201
242.819977
244.137756
249.716766
260.898376
277.125275
295.970917
314.207550
328.933014
338.853455
343.317200
342.464844
337.065308
328.924866
319.678558
310.065552
299.901642
288.487885
275.295746
259.931885
242.379120
222.954727
202.261734
180.939072
159.605164
138.771942
119.040466
101.132492
85.855423
73.858498
65.306236
59.472862
54.737686
48.881462
39.668793
25.632393
6.510757
-16.876419
-42.902252
-69.733505
-95.808594
-120.076324
-141.973022
-161.231995
-177.689636
-191.234039
-201.799652
-209.425049
-214.347107
-217.038971
-218.230408
-218.788910
-219.602386
-221.379089
-224.414368
-228.578735
-233.373352
-238.163635
-242.368225
-245.590637
-247.602356
-248.421875
-248.100525
-246.790466
-244.757019
-242.365662
-240.208374
-239.062927
-239.750122
-242.892273
-248.718079
-256.858276
-266.428894
-276.103516
-284.290283
-289.281799
-289.303040
-282.631653
-267.863525
-244.266785
-212.305054
-173.809326
-131.905945
-90.366577
-52.899536
-22.402771
-0.583618
12.085327
16.131042
12.834534
4.026794
-8.075195
-21.028931
-32.473877
-40.531677
-44.093384
-42.864075
-37.153564
-27.553406
-14.682556
0.777985
17.940216
35.526428
51.994110
65.853455
76.082428
82.366974
84.981934
84.515076
81.532166
76.377350
69.336975
60.828918
51.529266
42.269363
33.744659
26.102356
18.776520
10.487808
-0.435104
-15.638229
-36.319778
-62.745796
-93.763580
-126.592155
-156.994202
-179.756714
-189.896790
-183.909546
-160.763733
-122.324654
-73.002518
-18.580103
35.279629
84.307304
126.291595
160.868607
188.505219
209.657074
224.040100
230.731476
228.841354
218.316422
200.433182
177.538559
152.275620
126.824539
102.608459
80.536880
61.605301
47.241714
39.188156
38.928558
46.940430
62.228729
82.421692
104.399872
124.847687
141.012177
151.076447
154.187408
150.208038
139.375580
121.853333
97.504761
66.014648
27.307434
-17.919922
-67.850739
-119.946259
-171.428314
-219.831940
-263.183350
-299.643188
-326.990234
-342.523743
-343.441162
-327.730316
-295.091919
-247.122406
-186.729858
-116.937744
-40.030701
42.392334
128.347015
214.146729
293.999420
360.918091
408.848755
434.774597
439.653381
427.570557
403.659485
371.863708
333.987610
290.262634
240.766785
186.757874
130.739197
75.577393
23.259583
-25.620911
-71.408997
-114.091431
-152.330444
-183.463562
-204.348083
-212.870972
-208.992615
-194.847778
-173.793152
-149.172668
-123.355774
-97.645142
-72.910156
-50.244141
-31.368896
-18.363342
-12.887817
-15.466797
-25.393555
-41.235046
-61.507935
-85.090149
-110.936401
-137.254150
-160.936523
-177.675415
-183.057983
-174.127441
-150.522705
-114.636597
-70.811951
-24.092224
21.028015
61.157227
94.087219
118.749939
135.119568
144.194397
147.841919
148.342773
147.974915
148.565063
151.404297
157.207397
166.280212
178.423767
192.779846
207.926086
222.012146
233.214172
240.072388
241.584656
237.116882
226.436951
209.644104
187.228516
160.224915
130.020264
98.139832
65.947449
34.339844
3.786316
-25.520630
-53.684021
-80.659851
-106.076965
-129.228760
-149.307312
-165.757996
-178.706299
-189.029846
-198.126404
-207.455383
-218.068359
-230.322693
-244.077820
-258.511353
-272.032654
-282.171143
-285.684814
-279.271240
-260.536743
-228.847046
-185.602417
-133.857117
-77.416199
-20.085510
34.459229
82.868958
122.137756
150.036133
165.767883
170.336609
166.324829
157.122986
145.952576
135.083496
125.754883
118.448181
113.250610
110.171936
109.185608
110.119751
112.589844
115.958008
119.257080
121.338501
121.011902
117.405212
110.356140
100.548340
89.399902
78.566589
69.407776
62.633423
58.336914
56.341492
56.503540
58.697144
62.479187
66.603638
68.980591
67.148804
59.159058
44.404907
23.972168
0.173523
-24.434631
-48.005676
-69.923401
-90.665161
-111.287231
-132.874878
-156.062805
-180.911377
-206.718628
-231.732483
-253.007568
-266.597778
-268.353210
-255.209106
-226.459961
-184.402344
-133.940552
-81.298035
-32.293396
9.042908
40.920532
63.442627
77.732910
85.152222
87.021912
84.669312
79.750488
74.296387
70.589050
70.637451
75.806519
86.719604
103.229187
124.641113
149.761597
176.718384
202.899414
225.180908
240.553711
246.964355
243.995361
232.972290
216.463623
197.404175
178.269348
160.661194
145.330688
132.561279
122.423096
114.952087
109.945496
106.812866
104.554382
101.867859
97.379089
89.734802
77.591736
59.743652
35.310364
4.054016
-33.439636
-75.866150
-121.710388
-169.757507
-219.423584
-270.669983
-323.378479
-376.589905
-427.887604
-473.160278
-506.918091
-523.300537
-517.547852
-487.305084
-433.607147
-360.867676
-275.878937
-186.173737
-98.422668
-17.538300
53.243958
111.990204
157.574921
189.570923
208.616180
216.529633
215.979523
209.760712
199.914551
187.310028
171.960846
153.824493
133.451447
112.278961
92.320343
75.471741
62.857361
54.630798
49.994507
47.631409
46.193665
44.635345
42.456207
39.675507
36.479584
33.144806
29.867004
26.734619
23.743744
20.762421
17.464355
13.397491
8.151337
1.581268
-6.019043
-13.993134
-21.702820
-29.005890
-36.527588
-45.549805
-57.524536
-73.221741
-92.096375
-111.953217
-129.230591
-139.730438
-139.606995
-126.415802
-99.961884
-62.437073
-17.895844
28.785065
73.248932
112.521362
145.327698
171.606384
191.651337
205.474762
212.596558
212.486450
205.143341
191.584320
173.802887
154.229156
134.946533
117.272766
101.554871
87.520111
74.711212
62.761444
51.409485
40.314087
28.732147
15.660095
0.144562
-18.149384
-38.674744
-59.849243
-79.492065
-95.402191
-105.897247
-110.253052
-108.799118
-102.812668
-94.158066
-84.687363
-75.570084
-66.902222
-57.987442
-47.923599
-36.591782
-25.263580
-16.493683
-13.377945
-18.630005
-33.865479
-59.595779
-95.234268
-139.186630
-188.519119
-238.671738
-283.754639
-317.537476
-335.108582
-334.355957
-316.618866
-285.953857
-247.441101
-205.526215
-162.872559
-120.356491
-77.867401
-35.338562
6.608093
46.640182
83.158447
114.794296
140.792007
161.011459
175.741135
185.300781
189.969818
190.011139
185.834991
178.127655
167.878616
156.131989
143.712097
131.020218
117.931763
103.847961
88.035736
70.063751
50.109314
29.053391
8.281479
-10.825531
-27.357239
-41.125824
-52.621643
-62.815552
-72.792419
-83.502838
-95.437897
-108.540436
-122.089020
-134.932831
-145.873993
-154.227997
-160.209229
-164.954834
-170.234833
-177.761688
-188.518097
-202.219147
-217.048065
-229.760162
-236.161316
-231.898895
-213.475281
-179.271759
-130.097168
-69.072510
-0.909454
69.336792
137.362335
200.128540
255.955597
304.129730
344.517731
377.365417
403.263824
423.087036
437.777588
447.937042
453.496338
453.573944
446.773987
431.593903
407.049744
372.931702
329.814728
278.841400
221.518829
159.661224
95.454285
31.570343
-29.110138
-83.794434
-130.479736
-168.314911
-197.558716
-219.213013
-234.532562
-244.718018
-250.933533
-254.406677
-256.404266
-257.968323
-259.580292
-261.007782
-261.544952
-260.631500
-258.340363
-255.549622
-253.710724
-254.330200
-258.453156
-266.316528
-277.078735
-288.680389
-297.903412
-300.757355
-293.282501
-272.771057
-238.557526
-192.224121
-136.925568
-76.354187
-13.954315
47.486755
105.679810
158.679474
204.860474
243.207550
273.418427
295.668152
310.181580
316.775055
314.963623
304.403931
285.619507
260.267059
231.002594
200.749969
171.956970
146.162384
123.884247
104.831909
88.347076
73.674225
60.203949
47.690308
36.287933
26.557343
19.374908
15.643524
15.995636
20.495026
28.587067
39.144836
50.825623
62.316833
72.593781
80.916046
86.636566
89.008148
87.037994
79.610199
65.623352
44.305695
15.443146
-20.348785
-61.292297
-104.341522
-145.409363
-180.162964
-205.076782
-218.440033
-220.695465
-213.933289
-200.882599
-183.873627
-164.388000
-143.182556
-120.822540
-98.090607
-76.014435
-55.562897
-37.166382
-20.508514
-4.666229
11.483215
28.819885
47.562439
67.186218
86.495270
104.154755
119.091400
130.876740
139.721191
146.181763
150.758789
153.562714
154.310394
152.536560
147.971008
140.719421
131.229675
120.300659
108.861450
97.699646
87.249512
77.296082
66.947937
54.817383
39.422073
19.627731
-5.040405
-34.263000
-67.148010
-102.330856
-138.140747
-172.762756
-204.444946
-231.830658
-254.219101
-271.470398
-283.504150
-289.697876
-288.399017
-277.089813
-253.217758
-215.244629
-163.589035
-100.909653
-31.741852
38.438232
104.218979
161.121063
206.064499
237.381683
254.643585
258.280090
249.404175
229.652283
201.211166
166.799728
129.485397
92.416885
58.245544
28.717010
4.486725
-14.777817
-29.942902
-41.928314
-51.432999
-58.799103
-64.183350
-67.779968
-69.987091
-71.416611
-72.671021
-74.166992
-75.915482
-77.486008
-78.309845
-78.104675
-77.317505
-76.990143
-78.277588
-81.733170
-86.643906
-91.092041
-92.556671
-88.960266
-79.430679
-64.514465
-45.725983
-24.855560
-3.560318
16.846909
35.113586
49.835938
59.719604
64.071198
63.415268
59.735428
55.989716
55.147934
59.066483
67.836578
79.660828
91.682480
101.026871
105.761368
105.201172
99.776505
90.365112
77.801270
62.593475
45.152161
26.110565
6.478317
-12.484894
-29.571579
-43.905502
-55.106857
-63.303101
-68.890884
-72.363922
-74.134460
-74.390457
-73.115402
-70.174789
-65.534775
-59.354599
-51.861435
-43.130142
-32.759720
-20.036682
-4.100037
15.426971
38.098648
62.518661
86.653488
108.382614
125.966003
138.204926
144.511505
144.761169
139.074509
127.606628
110.332764
86.994247
57.326706
21.447449
-19.672318
-63.910248
-107.978149
-147.991898
-179.944901
-200.527985
-207.635651
-200.914795
-181.984436
-154.217087
-122.070663
-89.934616
-61.154831
-37.457184
-19.030243
-5.268982
4.757767
11.989471
17.621796
23.180832
30.415405
40.684631
54.386658
70.744003
88.053558
104.508163
118.666183
129.741043
137.404678
141.425568
141.456619
137.045044
127.753098
113.451401
94.578461
72.182281
47.906494
23.580048
0.778427
-19.681274
-37.912979
-54.746460
-71.175858
-87.763123
-104.363358
-120.220490
-134.386963
-146.211075
-155.637848
-163.202652
-169.952972
-177.154999
-185.796143
-196.045746
-206.735504
-215.298416
-218.354034
-212.567932
-195.753998
-167.513504
-129.197830
-83.504837
-33.851807
16.162399
63.140030
104.222198
137.462265
162.087372
178.575470
188.381760
193.426086
195.497787
195.996277
195.897598
195.924042
196.603958
198.199493
200.461639
202.555191
203.275558
201.358673
195.973358
186.797440
173.879105
157.316559
137.061905
113.009369
85.290070
54.721436
22.906708
-7.970688
-35.857956
-59.449478
-78.589157
-94.196930
-107.721329
-120.719925
-134.437943
-149.725052
-167.001495
-186.147018
-206.336960
-225.980103
-243.065903
-255.619919
-262.331940
-262.844421
-257.344360
-245.921021
-227.946671
-202.030823
-166.636398
-121.031555
-66.060776
-4.354370
60.158142
122.834930
179.115036
225.339279
259.265686
280.126709
288.365417
285.240753
272.330444
251.523224
224.685333
193.649109
160.419662
127.032639
95.221939
65.951248
39.427429
15.272369
-6.552399
-26.029480
-43.306595
-58.453094
-71.595963
-83.051025
-93.497177
-103.683975
-114.122330
-123.642731
-131.249588
-136.795868
-140.491882
-142.440384
-142.865479
-142.239182
-141.055664
-139.329178
-134.078995
-123.487427
-108.232422
-90.128479
-70.531418
-50.122406
-29.383255
-8.928925
10.350006
31.176178
53.860672
75.666275
94.249634
110.470840
127.859528
150.165894
179.534058
215.602203
260.619690
311.865723
360.987518
399.211212
421.647614
427.963837
420.340271
401.783051
344.252197
246.616425
135.145691
39.191780
-29.160759
-71.864578
-94.753883
-103.525574
-103.001564
-96.972023
-83.140190
-61.402058
-37.741142
-15.612274
3.745270
21.152512
37.210709
51.287865
61.996353
71.933922
81.684433
87.800446
87.428619
80.224045
71.249573
64.487396
60.438156
56.893478
52.391861
43.337311
22.655060
-13.300354
-62.057770
-116.360138
-167.739105
-212.048126
-248.077911
-275.648712
-296.926605
-319.211487
-347.691528
-382.964203
-421.799591
-458.423279
-489.576660
-510.854889
-516.197021
-501.536896
-471.782379
-434.248596
-395.461578
-359.869568
-328.766266
-305.706573
-291.855927
-285.294464
-252.297302
-180.979553
-86.249725
4.666656
61.622711
96.411530
120.539581
139.951324
161.651154
185.837769
206.120300
218.727097
225.817474
234.214432
252.995499
285.058472
329.992706
379.565002
419.020142
432.268311
413.745850
369.195709
310.226440
249.718414
199.387527
158.485840
125.725647
97.127609
66.014053
27.575348
-20.079765
-73.887314
-130.656479
-190.092682
-252.061157
-299.338104
-315.256775
-294.235046
-244.666061
-181.801163
-119.900589
-68.350517
-31.788979
-9.966839
2.090675
8.024973
9.204184
5.741621
-1.923526
-12.312847
-22.736002
-30.461897
-33.570587
-30.931290
-24.619289
-17.988482
-13.776930
-12.659180
-13.542690
-14.118439
-12.188683
-6.580872
2.908638
14.269966
24.761406
32.597931
38.309891
40.499794
40.255859
39.095154
37.942551
36.965927
35.042206
30.873260
23.961548
14.979492
5.085999
-4.363708
-12.868164
-20.481232
-27.038879
-31.741028
-33.143402
-29.672989
-20.510239
-6.356995
11.185791
29.754211
47.209015
62.190018
74.200348
83.164978
89.074585
91.797913
91.075073
87.176544
80.646393
72.327240
63.088654
53.546234
43.840332
33.678558
22.694275
10.686646
-1.921844
-14.362274
-25.808563
-35.612610
-43.407440
-49.093018
-52.616577
-53.872772
-52.705261
-48.862793
-42.070526
-32.137421
-19.049805
-3.287018
13.898010
30.694427
45.205902
56.206848
63.731567
68.976318
73.643646
79.068604
85.599365
92.577637
98.834534
103.443329
106.021667
106.947296
107.013733
107.122223
107.940643
109.732422
112.299835
115.094452
117.760742
120.485504
124.470215
131.807648
144.837585
165.468048
194.586716
231.958344
276.340454
325.451813
375.755615
422.390625
459.549744
481.767334
485.672821
471.283691
442.126190
404.070679
363.212280
324.022888
288.633362
257.147278
228.735092
202.609116
178.303513
155.549438
133.941757
112.944061
92.075409
71.313873
51.127686
32.162384
14.990631
-0.384613
-14.539703
-28.355774
-42.625122
-57.652283
-73.156555
-88.525330
-103.226501
-117.200928
-131.002502
-145.621826
-161.947632
-180.336121
-200.433533
-221.277771
-241.731995
-261.040894
-279.036865
-296.286743
-313.978882
-333.619019
-356.667969
-383.805176
-414.123169
-444.464111
-469.575684
-483.258057
-480.300659
-458.567505
-419.928589
-369.841431
-315.830566
-264.529663
-219.714111
-182.066406
-150.488037
-123.625732
-100.860229
-82.393921
-68.596191
-59.622070
-54.482910
-51.297119
-48.236328
-44.449463
-40.232056
-36.399658
-33.371826
-30.795044
-28.622437
-26.195557
-22.611694
-17.391968
-11.139404
-5.256348
-1.200439
0.086060
-1.727539
-9.186768
-22.987305
-40.980591
-59.396240
-75.382568
-88.017456
-97.856934
-106.203491
-114.342041
-128.779785
-152.547363
-183.020142
-214.632202
-243.621826
-269.359741
-292.472656
-312.937622
-329.367554
-348.407104
-372.115601
-395.281250
-409.429443
-409.943359
-397.698364
-376.331055
-349.872070
-321.654175
-306.075317
-311.116333
-333.573730
-363.220581
-391.875183
-416.249756
-435.751831
-450.698669
-388.526306
-227.309021
-8.852112
197.212891
349.721008
444.615112
495.321899
517.438354
522.767944
518.755005
498.100647
458.363403
407.153259
358.122498
320.891876
297.684113
286.000977
282.045349
283.302887
277.971436
264.005981
246.588684
233.947479
229.977631
232.581635
237.120087
239.789490
239.726807
231.918793
216.337524
197.193878
180.058762
167.397400
157.778748
147.945160
134.737183
117.194710
93.288940
64.965714
37.828812
19.071724
13.322731
20.367188
36.593399
53.482155
63.815605
63.375225
53.314892
38.239784
23.357590
11.731998
3.492355
-2.772163
-8.478947
-13.516981
-16.924166
-17.733112
-16.139244
-13.348787
-10.852816
-9.946144
-10.989170
-13.579105
-16.535698
-18.691034
-19.366652
-18.603868
-17.031599
-15.241884
-13.365173
-10.717690
-6.125650
1.533791
12.009575
23.500549
32.649235
35.988026
31.893076
21.616440
8.931149
-1.711459
-7.261368
-7.353457
-4.078948
-0.544945
0.876366
-0.702759
-4.928729
-11.026382
-18.409491
-26.437408
-33.980183
-39.098186
-39.826180
-35.259476
-26.244301
-15.199635
-5.103526
1.807694
4.718344
4.094308
0.939817
-4.118967
-11.068435
-20.057070
-30.957609
-43.123306
-55.424400
-66.881210
-76.671356
-84.267387
-89.418442
-91.932617
-91.638260
-88.436340
-82.468391
-73.420715
-62.048748
-49.484531
-36.790916
-24.923576
-14.539726
-5.854424
1.505257
8.357117
15.873734
24.988602
36.241104
49.478271
63.964149
78.761841
93.410995
108.207169
124.076057
141.909912
161.723816
182.384949
201.711960
217.259613
227.267914
231.474228
231.184113
228.704803
226.412338
225.738968
226.888458
228.852905
230.054810
228.967148
224.730469
217.222961
206.891403
194.269638
179.501877
162.141708
141.502090
117.050499
88.890778
57.989147
26.036385
-4.907730
-32.743660
-55.836967
-73.318176
-85.299866
-92.854507
-97.804642
-102.122284
-107.248154
-113.705368
-121.066391
-128.376022
-134.751022
-139.742050
-143.315491
-145.649078
-146.629822
-145.888062
-143.084503
-138.177490
-131.741425
-124.834045
-118.778717
-114.621307
-112.954651
-113.864655
-117.127441
-122.591003
-130.176483
-139.817047
-151.118134
-162.993347
-173.523529
-180.229492
-180.750702
-173.665680
-159.142334
-139.041473
-116.278717
-93.910370
-74.149078
-57.882629
-44.934204
-34.422333
-25.375275
-16.985565
-8.544312
0.604462
11.097748
23.395630
37.513489
52.747284
67.899170
81.529358
92.260620
99.229309
102.266327
101.939453
99.425995
96.179993
93.492706
92.259583
92.760345
94.536377
96.635315
97.759155
96.487946
91.737701
83.202942
71.474182
57.961639
44.323151
31.809814
20.929871
11.375549
2.474182
-6.382446
-15.414185
-24.529358
-33.271423
-40.899109
-46.216461
-47.565216
-43.327576
-32.617706
-15.960754
4.491882
25.411530
43.347076
55.857147
61.951904
62.126251
57.666748
50.026031
40.392639
29.536011
18.097351
6.847229
-3.157654
-10.793030
-15.069458
-15.420532
-11.714417
-3.888245
8.260620
25.101746
46.737427
72.460693
100.471191
128.283661
153.641144
175.258881
192.886169
206.536224
215.390686
217.229095
208.884674
187.652649
152.615906
105.212402
48.516418
-13.857422
-78.733765
-143.385498
-204.969055
-260.010132
-304.781799
-336.280029
-353.376831
-357.581726
-352.445312
-342.428162
-331.178345
-320.451050
-309.680359
-296.601807
-278.294434
-252.361389
-217.847900
-175.492371
-127.358887
-76.101257
-24.188477
26.570435
74.942932
119.749756
159.440002
191.629883
213.237976
220.986877
212.239685
186.029785
143.729004
89.225830
28.335815
-32.459595
-87.401855
-132.398865
-165.189575
-184.998413
-191.786865
-186.074219
-169.030884
-142.974854
-111.507141
-78.889648
-48.998840
-23.994934
-3.794739
13.579407
30.807556
49.647583
70.055115
90.042114
106.505188
116.582703
118.774963
113.404053
102.312378
87.956604
72.528931
57.351685
42.807983
28.720764
14.694885
0.325134
-14.763123
-30.890991
-48.068970
-65.597900
-81.691895
-93.494873
-97.714539
-91.626282
-74.195251
-46.672668
-12.502502
23.537170
56.336304
81.787201
97.431946
102.640167
98.389526
86.721802
70.201660
51.510803
33.216400
17.368866
5.290527
-2.708679
-7.339813
-9.809784
-11.322601
-12.361176
-12.522308
-10.717590
-5.851990
2.549988
13.944183
26.805664
39.008026
48.452484
53.520142
53.518158
48.769348
40.448334
30.164917
19.417023
9.197540
-0.153961
-8.778290
-17.035126
-25.275391
-33.899353
-43.523682
-55.046906
-69.478271
-87.520172
-108.959381
-132.375031
-155.103851
-173.670380
-184.519897
-184.751373
-172.855469
-149.033081
-115.269012
-74.913849
-32.096283
9.052673
45.045929
73.432861
92.912079
103.295807
105.375397
100.763916
91.584808
80.133545
68.361389
57.634430
48.668915
41.878937
37.520874
35.895203
37.239838
41.519043
48.301636
56.726746
65.614792
73.709473
79.729340
82.603760
81.573395
76.419556
67.444626
55.407684
41.168945
25.449738
8.682571
-8.714157
-26.266052
-43.358734
-59.539902
-74.748001
-89.431259
-104.313919
-120.069778
-137.049301
-155.339813
-174.802246
-195.091034
-215.279449
-233.481720
-246.753098
-251.664536
-245.340057
-226.620956
-196.419449
-157.313309
-112.436897
-64.590591
-15.819088
32.099106
77.172470
116.954422
149.028961
171.816299
185.285461
191.129395
192.156357
191.100357
189.831360
189.034729
188.537445
187.966187
187.266739
186.739502
186.798492
187.460312
188.117233
187.590317
184.595322
178.072205
167.616119
153.462845
136.261368
116.831650
95.829880
73.713501
50.617569
26.513504
1.339218
-24.759583
-51.238541
-77.162018
-101.374268
-122.834213
-140.918030
-155.563950
-167.310562
-177.152771
-186.230591
-195.672546
-206.218567
-217.857178
-229.393188
-238.285248
-240.865784
-233.240021
-212.353088
-177.168060
-129.243713
-72.657104
-13.051117
43.531128
92.101135
129.473541
154.533844
167.943451
171.402466
167.088531
157.094604
143.267731
127.131073
109.992249
92.964294
76.968597
62.899811
51.594879
43.656097
39.368286
38.355499
39.564911
41.448669
42.439026
41.425171
38.047455
32.695404
26.161469
19.353241
12.934601
7.183777
1.984131
-3.020569
-8.292694
-14.106384
-20.314270
-26.227081
-30.657196
-32.378479
-30.776245
-26.339539
-20.705811
-16.316956
-15.612854
-20.431946
-31.658813
-49.231873
-72.497345
-100.302673
-130.799408
-161.218719
-187.809387
-206.377563
-213.257416
-206.402130
-185.862701
-153.502014
-112.057190
-64.278748
-12.571106
40.531982
91.887878
137.665527
173.961426
198.064880
209.500854
210.121399
203.248474
192.192871
179.102356
164.642700
148.610413
130.884094
112.050537
93.313354
75.877625
60.270081
46.068054
32.225037
17.692139
1.940918
-14.693115
-31.198669
-46.269836
-58.875793
-68.520203
-75.376770
-80.080017
-83.321960
-85.487305
-86.485901
-85.848022
-83.177612
-78.575745
-72.863586
-67.367981
-63.645142
-62.830872
-65.458679
-71.263123
-79.285645
-87.814209
-94.552856
-96.746521
-91.690063
-77.387939
-53.119507
-19.765808
20.189880
63.141846
104.946899
141.558899
169.695435
187.347595
194.161987
191.321716
181.112610
166.180969
148.802185
130.524170
112.169861
94.300537
77.658142
63.436584
53.169556
48.342224
49.842773
57.717773
71.012207
88.022339
106.543945
124.279663
139.140930
149.593140
154.939453
155.566406
152.842590
148.760986
145.146179
142.938721
141.532532
138.911438
132.358643
119.401733
98.571655
69.487976
32.496887
-11.909607
-63.212708
-120.509766
-181.640015
-242.640930
-297.818542
-340.714478
-365.713440
-369.440552
-351.756836
-315.595215
-266.297791
-210.295288
-153.900574
-102.393066
-59.427673
-26.786560
-4.562256
8.546326
14.672668
16.224060
15.395813
13.859314
12.680725
12.470093
13.521851
15.946411
19.790771
25.013245
31.479492
38.956848
47.135620
55.635925
64.045654
71.853333
78.439575
83.166687
85.502258
85.222229
82.473755
77.626465
71.015991
62.882202
53.272278
42.264343
30.058105
17.047546
3.593445
-10.169250
-24.503357
-40.064941
-57.617249
-77.729553
-100.332947
-124.316895
-147.277466
-165.627014
-175.270752
-172.663025
-156.091614
-126.488403
-87.328064
-43.615906
-0.342773
38.841797
72.173340
99.522461
121.456787
138.496582
150.766724
158.087524
160.440186
158.179443
152.108765
143.270142
132.752075
121.607178
110.778076
101.309204
94.356079
91.047974
92.131836
97.466309
105.732056
114.502563
120.794678
122.020142
116.856445
105.586914
89.824219
71.757324
53.278809
35.473145
18.523071
2.039917
-14.461487
-31.199768
-48.079041
-64.787109
-81.014709
-96.655640
-111.928650
-127.334351
-143.431763
-160.607117
-178.642151
-196.551331
-212.401489
-223.559021
-227.182129
-220.903076
-203.478394
-175.070496
-137.262695
-92.552917
-43.912354
5.556641
52.714661
94.353394
127.302124
148.962402
158.066162
155.290161
143.426392
126.692810
109.596375
95.794861
87.242981
84.220520
85.710388
90.127441
95.796997
101.358887
105.867493
108.724548
109.706970
108.733398
105.813110
100.780701
93.390320
83.359985
70.709900
56.109253
40.819397
26.388794
14.057068
4.282837
-3.390808
-10.066101
-17.048645
-25.370911
-35.419495
-46.961914
-59.238342
-71.342590
-82.543945
-92.569214
-101.682251
-110.592041
-120.137695
-130.758240
-142.129089
-152.786133
-160.310669
-161.896118
-155.155212
-138.893494
-113.582825
-81.334839
-45.193726
-8.595703
25.471680
54.638000
77.186157
91.911682
98.059326
95.567810
85.316650
69.284302
50.212891
31.194580
15.089722
3.978882
-0.979126
0.251709
6.607422
16.184875
26.658020
35.925720
42.733154
46.978882
49.452881
51.343323
53.497009
56.000061
58.138428
58.809448
56.912659
51.869690
43.732788
32.990173
20.456848
6.924622
-6.993042
-21.148621
-35.688599
-50.969299
-67.335266
-84.955322
-103.983704
-124.386536
-145.688477
-166.547668
-184.502075
-196.098572
-197.738892
-186.864685
-162.922394
-127.765747
-85.093140
-39.442566
4.944153
44.851257
78.247192
104.013794
121.621277
131.105408
133.034485
128.718933
120.064209
109.252197
98.229675
88.264893
79.696411
72.248718
65.459167
59.141113
53.667725
49.641846
47.393005
46.532715
45.907349
43.850464
38.978577
30.858582
20.170898
8.507141
-2.282104
-10.795898
-16.580994
-20.112488
-22.459595
-24.697937
-27.513489
-31.046448
-35.025940
-39.143188
-43.414612
-48.286560
-54.535522
-63.013794
-74.321777
-88.452881
-104.704285
-121.526672
-136.557739
-146.781433
-149.041260
-140.727936
-120.666260
-89.719604
-50.846344
-8.573975
32.136963
67.022034
93.391785
110.437134
118.904846
120.468445
117.131470
110.837097
103.237061
95.807373
89.724854
85.762146
84.008789
83.762482
83.676697
82.359131
79.102600
74.304047
69.399109
66.159210
65.668335
67.664825
70.501038
71.854645
69.760498
63.500366
53.811981
42.334534
30.809296
20.167938
10.340820
0.536133
-10.211975
-22.456238
-36.068207
-50.240356
-63.873108
-75.923706
-85.814026
-93.560638
-99.749817
-105.484863
-112.016571
-120.284088
-130.463318
-141.378845
-150.356323
-153.609589
-147.099487
-127.732681
-94.605545
-49.595123
2.728668
55.974518
103.377686
139.360321
160.657501
166.844513
160.107422
144.325653
123.894196
102.717651
83.576233
67.983307
56.478668
48.863358
44.359589
41.734726
39.358765
35.703873
29.972443
22.407852
14.373871
7.666229
3.642700
2.653625
3.816589
5.576019
6.436203
5.554611
2.838470
-1.230377
-6.172852
-11.849823
-18.546188
-26.820824
-37.047813
-49.152542
-62.451805
-75.906853
-88.498817
-99.704712
-109.779594
-119.650925
-130.458282
-143.026154
-157.346893
-172.262222
-185.601807
-194.419098
-195.629395
-186.867676
-167.175476
-137.455139
-100.407753
-59.857079
-19.679161
17.012428
48.393574
73.774376
93.085449
106.463219
114.070221
116.241669
113.684891
107.539627
99.153992
89.710136
80.075714
70.726135
61.949352
54.020443
47.237431
41.832443
37.939941
35.423809
34.031845
33.411049
33.070515
32.547619
31.343794
29.123590
25.763882
21.370043
16.125349
10.222788
3.890643
-2.637620
-8.853941
-14.133762
-17.991285
-20.414162
-21.976135
-23.732576
-26.863068
-32.223389
-40.079620
-50.122684
-61.456059
-72.722321
-81.934464
-86.519028
-83.692337
-71.189819
-48.192482
-15.856239
22.591347
62.750866
100.199211
131.567703
155.170898
170.871048
179.541016
182.269501
180.035004
173.858963
165.316925
156.824738
151.178726
150.331421
154.003845
159.115494
160.484802
152.695404
132.346741
99.492111
57.460785
11.459869
-33.345184
-73.369965
-106.907379
-133.560654
-153.374786
-166.282318
-172.072205
-170.835693
-163.381012
-151.166534
-136.336853
-121.175171
-107.733673
-97.602264
-91.631561
-89.953217
-92.013123
-96.786682
-102.992279
-109.458344
-115.313385
-120.157318
-124.052795
-127.191956
-129.446320
-129.868561
-126.565918
-117.071960
-99.201355
-72.054077
-36.875580
2.824615
42.114227
75.936432
100.479126
114.143158
117.577057
113.022614
103.241211
90.708618
77.070068
63.206024
49.561127
36.541626
24.759766
15.037750
8.098755
4.455200
4.239655
7.346527
13.499023
22.313660
33.216705
45.322510
57.422577
68.075287
75.973785
80.285767
80.881287
78.327515
73.617706
67.781158
61.436829
54.553558
46.582703
36.817932
24.859558
10.870728
-4.370972
-19.728394
-34.246765
-47.465088
-59.561707
-71.291077
-83.693542
-97.664429
-113.496399
-130.346619
-146.020447
-157.172485
-159.953796
-151.230225
-129.783142
-97.048218
-57.080078
-15.648682
21.189331
48.345032
62.721313
63.392456
51.342041
28.848938
-1.107605
-35.346436
-70.685547
-104.043152
-132.426025
-153.051208
-163.524963
-162.379089
-149.562378
-126.761047
-97.219238
-65.025146
-34.047241
-7.008972
14.957031
32.075134
45.193054
55.031982
61.846497
65.408936
65.546631
62.541687
57.320312
51.154297
45.294189
40.411682
36.552307
33.308716
30.217834
27.017029
23.533142
19.445374
14.044861
6.317871
-4.503662
-18.294739
-33.546570
-47.695618
-57.965698
-62.457397
-60.861389
-54.439758
-45.406799
-36.127136
-28.463135
-23.609070
-21.989990
-23.402344
-26.993896
-31.335632
-34.618896
-35.051605
-31.373932
-23.193939
-11.145447
3.303680
18.261444
31.933350
43.190887
51.714447
58.070831
63.238647
67.984772
72.413025
75.900085
77.388123
76.008392
71.488953
64.253357
55.157196
45.045349
34.439362
23.443298
11.861389
-0.588226
-13.932068
-27.717804
-41.113831
-52.935516
-62.074951
-67.888214
-70.553314
-71.025421
-70.760162
-70.974579
-71.984406
-72.896881
-71.472534
-64.663757
-49.555908
-24.142151
11.656433
55.598663
103.253601
148.746002
186.006561
210.224823
218.770126
211.421249
189.895737
156.875427
115.328339
68.146667
18.330536
-30.722717
-75.153107
-111.136322
-135.728729
-147.523315
-147.089752
-136.666168
-119.487946
-98.848755
-77.507935
-57.306976
-39.312775
-24.062897
-11.753510
-2.464294
3.836487
7.354156
8.440308
7.490051
5.007263
1.526306
-2.266846
-5.425201
-6.801300
-5.216431
0.003906
8.721222
19.714935
30.947144
40.234650
46.204193
48.877716
49.783142
51.402985
56.124146
65.181091
78.020355
92.327148
104.776337
111.984436
111.336212
101.404053
81.864441
53.354950
17.371399
-23.687988
-66.616486
-107.647095
-143.135559
-170.269897
-187.589233
-195.096649
-193.907745
-185.771301
-172.579468
-156.139343
-137.917450
-119.098602
-100.541473
-82.716949
-65.898712
-50.446411
-36.875793
-25.900085
-18.171356
-13.945190
-12.926941
-14.454132
-17.719482
-22.093933
-27.256378
-32.961365
-38.915955
-44.659775
-49.634323
-53.495010
-56.374527
-58.907486
-62.141098
-66.910751
-73.325485
-80.470139
-86.459045
-88.881195
-85.499374
-74.933334
-56.977951
-32.803108
-4.620834
24.794365
52.486107
75.925377
93.397942
104.201439
108.666245
107.845291
103.036247
95.318031
85.420990
73.748627
60.752068
47.160019
34.012802
22.501781
13.692596
8.328033
6.660992
8.519508
13.241730
19.824440
26.934494
33.260719
37.727707
39.835190
39.704056
37.926331
35.359207
32.729309
30.606628
29.172791
28.325897
27.635086
26.318893
23.289413
17.410156
7.702911
-6.304245
-24.156052
-44.207962
-63.570175
-78.432037
-84.743973
-79.113388
-59.699905
-26.646881
17.877029
70.103378
125.445679
179.355286
228.145050
269.469940
302.408386
327.124664
344.321350
354.491699
357.534302
352.806946
339.478699
317.250488
286.734589
249.616043
208.285019
165.335800
123.178619
83.879074
49.096924
20.236862
-1.644440
-15.980255
-22.982010
-23.716568
-19.967407
-13.820190
-6.991638
-0.448669
5.596954
11.169212
15.895378
18.419373
16.406334
7.127975
-11.674469
-41.053753
-80.649185
-128.996765
-183.902084
-242.668076
-302.018890
-357.772064
-404.841492
-437.633911
-450.934235
-441.127594
-407.195496
-351.246429
-278.346771
-195.672852
-111.216736
-32.334122
35.514408
89.358780
128.555832
154.198853
168.142365
172.388306
168.747192
158.874573
144.468567
127.229614
108.861771
91.001694
75.325394
63.411255
56.770447
56.356972
62.136703
72.860321
86.128883
99.056282
109.169624
115.167419
117.172516
116.530838
115.134613
114.530197
115.445450
117.360687
118.784103
117.666824
111.883072
99.553284
79.330902
50.522766
13.272888
-31.248337
-81.014725
-133.482330
-186.130554
-236.967682
-284.364471
-326.440796
-360.493286
-382.733185
-388.867798
-375.466431
-341.291382
-288.143341
-220.879822
-146.420120
-72.369934
-5.671753
48.487579
87.314453
110.404816
119.393326
117.210953
107.175079
92.545532
76.213440
60.701187
48.239090
40.563293
38.624573
42.352188
50.637924
61.608093
73.018845
82.668686
88.694321
89.983017
86.270020
78.235291
67.308762
55.210266
43.448074
32.881042
23.758713
15.799103
8.680939
2.118042
-4.123703
-10.297318
-16.652145
-23.344131
-30.198227
-36.713928
-42.279800
-46.545425
-49.792145
-52.917969
-56.995209
-62.529846
-68.929367
-74.403427
-76.537674
-73.303040
-63.935028
-49.408188
-32.188477
-15.436859
-2.065552
5.874344
7.469284
2.787857
-7.415451
-21.732285
-38.432205
-55.565216
-71.309692
-84.254562
-93.494003
-98.579178
-99.064095
-94.450439
-84.170807
-68.104034
-46.931396
-22.285439
3.706688
28.981438
52.083549
72.424408
89.972748
104.954636
117.649948
128.237946
136.751587
142.818298
145.364151
142.509033
132.072906
112.255447
82.582817
44.393425
0.518452
-45.506660
-90.574379
-132.578232
-170.661346
-204.712112
-234.919846
-261.029755
-281.864807
-295.267090
-298.462219
-288.834167
-264.770477
-226.467438
-175.923248
-116.752289
-53.221626
10.354263
69.954224
122.177788
164.388000
195.071045
214.097260
222.866943
223.832703
219.801910
213.095306
205.095520
196.306992
186.720322
176.181091
164.821838
153.140961
141.953018
132.140213
124.385254
118.738129
114.597458
110.799042
105.999161
99.184845
90.018951
78.791855
66.169312
52.851959
39.396240
26.284027
13.883957
2.443359
-8.068970
-18.258774
-29.364426
-42.960083
-60.503265
-82.959610
-110.527206
-142.673401
-178.133987
-214.864914
-249.762299
-278.590576
-296.201355
-297.528015
-279.161926
-240.685410
-185.549576
-120.564072
-54.145706
5.934052
54.446884
89.537811
112.242050
125.090973
130.748520
131.089355
127.194229
119.805664
109.840210
98.519348
87.272217
77.220917
68.974670
62.611023
57.987305
55.089447
54.204956
55.856628
60.341125
67.283020
75.421265
82.739258
87.123871
86.905121
81.443024
71.310394
57.955963
43.183441
28.539276
14.947327
2.503540
-9.274261
-21.228180
-34.151459
-48.361053
-63.592285
-78.997253
-93.520721
-106.455215
-117.860245
-128.481781
-139.288132
-150.551453
-161.164230
-168.569321
-169.515182
-161.129883
-141.904724
-111.904358
-72.329224
-24.914764
28.105499
83.597961
137.137878
183.417236
217.701019
237.558868
243.979218
241.019287
233.829071
226.255341
219.267517
211.171295
199.194458
181.542023
158.448669
131.988861
104.853516
78.859222
54.435303
30.977417
7.876831
-14.552795
-34.711273
-50.192047
-58.808746
-59.506195
-52.923187
-41.324860
-27.982178
-16.317291
-9.176758
-8.150177
-13.433014
-23.918274
-37.662384
-52.594604
-67.162750
-80.721451
-93.580750
-106.697083
-121.196335
-138.008911
-157.853531
-180.840805
-206.171371
-231.739578
-254.094437
-269.135529
-273.333221
-264.957764
-244.769684
-215.658798
-181.315720
-144.617706
-106.800888
-67.587097
-26.497131
15.726013
56.446960
91.598511
117.067169
130.299805
131.239197
122.203430
107.101746
90.187653
75.110077
64.610535
60.487305
63.735931
74.359314
91.007935
110.718658
129.348358
142.542847
146.959229
141.448578
127.235168
107.314484
85.233551
63.883514
44.830841
28.330536
13.842651
0.590210
-12.022736
-24.400482
-36.856384
-49.707977
-63.221771
-77.486603
-92.240112
-106.916809
-120.609985
-132.123932
-140.004395
-142.506897
-137.761047
-124.106689
-100.625977
-67.625244
-26.835938
18.807129
65.890808
111.261658
152.476013
187.724243
215.239075
233.093079
239.522583
233.850281
217.405457
193.807617
168.147461
145.366211
128.730957
118.883911
114.150299
111.652679
108.592072
103.152100
94.666412
83.350433
69.907776
55.143921
39.891266
24.860718
10.658875
-2.434937
-14.434326
-25.634277
-36.444885
-47.123657
-57.608215
-67.398224
-75.602753
-81.268982
-83.829987
-83.563812
-81.692841
-80.192474
-81.059998
-85.582520
-93.404541
-102.157654
-107.552887
-104.440125
-88.408417
-57.644531
-14.126953
36.374329
85.750397
125.976105
151.438019
160.226288
154.026825
136.717133
112.653931
85.384613
57.333344
30.073273
4.805573
-17.414581
-35.689331
-49.316406
-57.695663
-60.363556
-56.894714
-47.332596
-32.474731
-14.029861
5.539368
23.622849
38.079208
47.590118
51.778412
50.995392
46.149063
38.339417
28.790604
18.473404
8.059723
-2.055054
-11.565216
-19.967407
-26.440628
-30.251190
-31.178650
-29.947998
-28.200516
-28.081779
-31.364166
-38.637451
-48.916008
-59.640610
-67.321701
-68.547615
-60.985161
-44.459404
-21.054321
5.289806
29.883045
48.540535
58.556038
59.027435
50.599968
35.006931
14.521620
-8.239511
-30.453791
-49.450890
-62.990295
-69.834343
-70.003380
-64.807938
-56.305809
-46.783424
-38.080673
-31.245623
-26.433277
-23.193054
-20.755959
-18.539883
-16.313911
-14.099518
-11.937958
-9.686111
-6.972538
-3.614159
0.013344
2.902374
3.604362
0.833611
-5.830444
-15.764870
-27.511444
-39.413635
-50.338661
-60.113945
-69.534729
-79.893951
-92.303070
-107.006897
-123.102051
-138.486176
-150.168518
-155.055969
-150.547882
-135.216904
-109.156570
-74.085495
-33.066513
9.923416
50.650185
85.318672
111.122238
126.482445
131.135513
125.768166
111.941422
91.939705
68.706032
45.637238
26.093689
12.528862
5.903351
5.401001
8.824226
13.528885
17.418182
19.510719
20.052490
20.116646
20.945267
23.548676
28.461380
35.595757
44.290382
53.427727
61.499908
66.996788
68.745972
66.061508
59.161087
49.046318
37.406105
26.062492
16.415359
8.807816
2.496964
-3.898590
-11.624649
-20.894554
-30.584709
-38.647301
-42.861534
-41.957092
-36.050179
-26.705498
-16.276772
-7.186256
-1.148247
1.103851
-0.200623
-4.028366
-9.009369
-13.907288
-17.760956
-19.978226
-20.343658
-18.920166
-15.999939
-12.240662
-8.462479
-5.614471
-4.437775
-5.216919
-7.616226
-10.909119
-14.140198
-16.472931
-17.519135
-17.349640
-16.539810
-15.948242
-16.481827
-18.819534
-23.184372
-29.190140
-35.916382
-42.269180
-47.197800
-50.173370
-51.394302
-51.774277
-52.870743
-56.488205
-64.079895
-76.113556
-91.514542
-107.332474
-119.061386
-121.820389
-111.785065
-87.694199
-51.400894
-7.287689
39.268692
83.598068
122.993622
156.760818
185.428116
209.552444
228.901047
242.348801
248.598373
247.018661
238.254974
224.195038
207.397934
190.267624
174.341370
159.932770
146.398422
132.643265
117.753647
101.297028
83.336044
64.060654
43.348129
20.678452
-4.700470
-33.207275
-64.391541
-96.700897
-127.685822
-154.710846
-175.768402
-190.119995
-198.386322
-202.171356
-203.250336
-203.059204
-202.341675
-201.440033
-200.745483
-201.002777
-203.189301
-207.836700
-214.482513
-221.496948
-226.343567
-226.232208
-218.723480
-202.218353
-176.171906
-141.240448
-99.401550
-53.887604
-8.852112
31.417450
63.500702
85.530441
97.537888
101.012604
98.152878
91.071579
81.542801
70.891037
60.267532
50.812881
43.597229
39.263123
37.928360
38.956177
41.373520
44.413040
47.901718
52.361679
58.470139
66.423203
75.424469
83.764725
89.423187
90.723251
86.844604
77.699966
63.738419
45.726105
24.795242
2.559570
-18.874298
-37.423050
-51.680862
-61.617035
-68.669098
-75.172409
-83.534424
-95.348190
-110.573151
-127.291626
-141.974777
-150.280792
-148.126755
-133.045380
-104.936920
-66.211334
-21.205002
25.079636
68.144890
104.835793
133.720917
154.969116
169.810410
179.663727
185.376251
186.610382
182.177399
170.968872
153.173721
131.035919
108.505394
89.655548
77.106255
71.041306
69.500214
69.711189
69.412971
67.576683
64.224937
59.547043
53.203972
44.271240
31.782745
15.344757
-4.398148
-25.834366
-46.878815
-65.579025
-80.755951
-92.278038
-101.042999
-108.597916
-116.746216
-127.066910
-140.530533
-157.344727
-176.642441
-196.261688
-212.698639
-221.513916
-218.453522
-200.809204
-168.568481
-124.687630
-74.334450
-23.260887
23.764046
63.889885
96.272354
121.238953
139.477600
151.340317
156.810120
155.806732
148.604309
136.122482
119.722336
100.998192
81.428246
62.217514
44.286247
28.457939
15.439751
5.853241
-0.063568
-2.681076
-3.059860
-2.648476
-2.781746
-4.235840
-6.974602
-10.368683
-13.669365
-16.428078
-18.700306
-20.900051
-23.625938
-27.276230
-31.994503
-37.630028
-43.939392
-50.708935
-57.857277
-65.518524
-74.016891
-83.691696
-94.699600
-106.636658
-118.127693
-126.621140
-128.540573
-120.083252
-98.452377
-63.108925
-16.480738
36.234535
88.324959
133.353882
166.718765
186.445206
193.172256
189.190475
177.370056
160.548813
141.037521
120.796722
101.481773
84.491043
70.911636
61.325504
55.653687
53.038437
51.949867
50.480343
46.891468
40.245491
30.654787
19.202255
7.343490
-3.956851
-14.578614
-25.155447
-36.501884
-48.946083
-62.020191
-74.783478
-86.351585
-96.347130
-105.125023
-113.335197
-121.469360
-129.810410
-138.379074
-147.174606
-156.482361
-166.730515
-178.123093
-190.166351
-201.253601
-208.656494
-209.070541
-199.458878
-177.966965
-144.813553
-102.251770
-53.974380
-4.267151
42.977406
84.726593
118.880959
144.173248
160.163513
167.227448
166.718323
160.888885
152.319168
143.494690
136.247437
131.572083
129.762177
130.631546
133.713364
138.389832
143.880569
149.103424
152.738464
153.437042
149.987915
141.924316
129.785980
115.085556
99.904602
86.138145
74.755737
65.504959
57.294098
48.764290
39.114761
28.370842
17.137451
6.258827
-3.449249
-11.329178
-16.864319
-20.044334
-21.769356
-24.035484
-29.549133
-40.691868
-58.072868
-79.716866
-101.370079
-117.868622
-124.999687
-120.966797
-106.554848
-84.432961
-57.831982
-29.512482
-1.597354
24.121687
45.850262
61.740578
70.232216
70.779472
64.266617
52.851402
39.407413
26.578196
15.945822
7.846584
1.642532
-3.656052
-8.773399
-13.875263
-18.773293
-23.218613
-27.255135
-31.235935
-35.638287
-40.740501
-46.450706
-52.371464
-57.996925
-63.018337
-67.442291
-71.627022
-76.128403
-81.335541
-87.238083
-93.208740
-98.209045
-101.279938
-102.104691
-101.409973
-100.905243
-102.748962
-108.593399
-118.672035
-131.399582
-143.348801
-149.832825
-146.037292
-128.305161
-95.413345
-49.391850
4.556534
59.091003
106.582794
141.154434
160.150543
164.367294
157.233994
143.263763
126.564728
109.997780
94.969666
81.874062
70.658157
61.168365
53.247795
46.821110
41.905342
38.627602
37.320145
38.459511
42.437584
49.316833
58.548294
68.976372
79.022850
87.100601
91.940521
92.982643
90.394745
84.962547
77.841759
70.179558
62.800629
56.113464
50.206249
45.116806
40.988312
38.057800
36.107834
34.047440
29.651783
19.865475
1.783089
-26.362267
-64.344055
-109.602448
-157.603394
-202.624176
-238.727448
-260.874298
-266.023010
-253.766296
-226.525192
-189.105820
-147.419662
-107.118515
-72.338806
-45.223827
-26.028713
-13.761658
-6.780216
-3.334358
-1.892879
-1.259247
-0.781654
-0.301037
0.083138
0.419912
1.224014
3.695049
9.290157
19.211260
33.675724
51.532284
70.378372
87.120178
98.706268
102.911713
98.970612
87.869225
72.257500
55.970856
42.906372
35.796204
35.246094
39.448711
44.867668
47.554394
44.614433
34.962250
19.381298
-0.259075
-21.933529
-44.139572
-66.079498
-87.360367
-107.596062
-125.904327
-140.762314
-150.096268
-151.799591
-144.259552
-126.994629
-100.912605
-68.262611
-32.184128
3.913513
36.909058
64.317558
84.450058
96.446678
100.323044
96.960739
87.965729
75.524071
62.111206
50.072922
41.151611
36.280983
35.405113
37.665321
41.864265
46.927612
52.377525
58.204254
64.405373
70.576614
75.836693
79.119957
79.737213
77.905220
74.674164
71.402641
69.008194
67.475372
65.806450
62.465042
55.849609
44.894547
29.422089
10.186005
-11.363586
-33.536789
-54.979950
-74.978790
-93.641830
-111.604263
-129.433029
-147.045319
-163.515457
-176.996918
-185.022614
-184.934723
-174.520782
-152.744064
-120.384415
-80.269135
-36.783875
4.948715
40.429230
66.679016
82.449265
88.184830
85.518188
76.865219
65.059982
52.895386
42.626129
35.638672
32.183334
31.649124
33.094101
35.850693
39.660614
44.676498
51.083206
58.828293
67.564316
76.775513
85.853806
94.210510
101.228409
106.207047
108.556198
107.948547
104.403000
98.518127
91.340607
84.084061
77.750183
72.858246
69.305801
66.603394
64.151154
61.319168
57.455780
51.648827
42.765625
29.728928
12.173019
-8.894058
-30.848450
-49.801598
-61.661171
-63.346092
-53.886597
-34.805786
-9.815945
16.174511
38.070625
51.803135
55.025524
47.470001
30.799345
7.974302
-17.451159
-42.040581
-63.024734
-78.567657
-87.812973
-90.805901
-88.468102
-82.253448
-73.803238
-64.557991
-55.465061
-46.825424
-38.508865
-30.254677
-21.994637
-14.041237
-6.882774
-0.909492
3.923065
8.217110
12.976585
19.154907
27.073486
36.106369
44.607048
50.459831
51.945763
48.476898
40.852806
30.739815
19.551750
7.574310
-6.363495
-24.257721
-47.898781
-77.679947
-112.229347
-148.510925
-182.363037
-209.528442
-226.297302
-230.303802
-221.003021
-199.761734
-169.466705
-133.703888
-95.899368
-58.683411
-23.860565
7.276062
33.655289
54.333206
68.747253
77.001518
79.733704
77.982124
73.004944
66.095825
58.663315
52.243744
48.195221
47.412392
50.211296
56.278801
64.940750
75.371872
86.377800
96.630615
104.766983
109.686554
111.105171
109.579025
106.242805
102.015152
96.983696
90.133308
79.794083
64.524368
43.646286
17.684021
-11.865349
-43.242966
-74.909462
-106.050179
-136.687515
-167.334656
-198.241058
-228.668335
-256.208527
-276.842529
-285.839355
-278.923492
-253.804932
-211.261139
-155.380798
-92.818947
-31.334496
22.083679
62.785896
89.145874
102.347282
105.366051
101.628891
94.057129
84.712563
74.948349
65.849892
58.535873
53.809258
51.917145
52.394600
54.222149
56.504784
58.859634
61.546852
65.041687
69.588745
74.784470
79.801865
83.806839
86.445518
88.023468
89.177834
90.295044
90.985931
90.023056
85.665039
76.449173
62.010078
43.276337
22.342886
1.689228
-16.769770
-32.364548
-45.700878
-58.280228
-71.727295
-87.121735
-104.762489
-123.804901
-142.210907
-156.859070
-164.022522
-160.330307
-144.071838
-116.237801
-80.523026
-42.489250
-7.849697
19.115650
36.401493
44.160591
44.008709
38.164825
28.908203
18.547985
9.381542
3.492137
2.469131
6.863254
16.051279
28.256666
40.937599
51.541302
58.308140
60.806309
59.926266
57.439537
55.002220
53.469822
52.663269
51.661819
49.524906
45.886829
41.027481
35.691795
30.690695
26.607182
23.633228
21.786179
20.814226
20.276211
19.767485
18.816170
17.174919
14.748770
11.222902
5.928104
-2.104990
-13.690125
-28.911337
-46.418602
-63.603951
-77.196014
-84.216072
-83.062012
-74.069496
-59.439457
-42.671757
-27.371307
-16.092779
-9.650126
-7.021612
-6.044872
-4.567606
-1.369860
3.568457
9.325309
14.708359
18.806759
20.921995
20.723770
18.167248
13.613504
8.106239
3.183655
0.399885
0.586407
3.529558
8.058523
12.809052
17.114464
21.099936
25.456764
30.693558
36.463989
41.435219
43.906082
42.516773
36.932037
27.934509
16.937840
5.373260
-5.962713
-17.281881
-29.531937
-43.817688
-60.790161
-80.032547
-99.811005
-117.291687
-128.951019
-131.115280
-120.688324
-95.760674
-56.177319
-4.147228
55.652954
116.588799
171.162354
212.664841
236.750473
242.322464
231.469254
208.541183
178.541763
146.001587
114.288300
85.588272
61.394051
42.795376
30.502506
24.458609
23.484213
25.327417
27.166267
26.511377
21.882946
13.255060
1.835361
-10.626507
-22.600601
-33.328049
-43.053627
-52.673325
-63.217026
-75.309296
-88.862587
-103.143860
-117.101410
-129.782318
-140.643219
-149.659134
-157.306427
-164.371552
-171.793335
-180.440948
-190.841278
-202.820938
-215.128433
-225.246216
-229.695190
-224.783295
-207.700760
-177.567123
-135.783615
-85.903877
-32.693375
18.902512
64.754791
102.150864
129.982101
148.562744
159.182953
163.685181
164.004837
161.835388
158.415558
154.468964
150.213425
145.494003
139.972931
133.411575
125.813515
117.538040
109.149765
101.079895
93.414597
85.641312
76.881950
66.278191
53.423126
38.553452
22.502546
6.278198
-9.328436
-23.995352
-37.968311
-51.817261
-66.103546
-81.035721
-96.357750
-111.350685
-125.097824
-136.832642
-146.300400
-153.940948
-160.914749
-168.733673
-178.589905
-190.644760
-203.397018
-213.635284
-217.047134
-209.390686
-187.907593
-152.268127
-104.821671
-49.989231
6.906254
60.869850
108.090393
146.272232
174.525330
192.857452
201.867737
202.514771
195.922729
183.519608
166.975723
148.196198
129.051453
111.190132
95.721451
83.157806
73.547867
66.738106
62.620293
61.161949
62.229904
65.268982
69.275978
72.940407
75.039841
74.803497
72.133583
67.486572
61.551071
54.959930
48.128906
41.313156
34.695404
28.442596
22.711121
17.603821
13.230515
9.762413
7.261024
5.369781
2.994843
-1.842583
-11.713799
-28.970543
-54.816284
-88.655991
-127.939880
-168.651276
-205.998566
-235.279907
-252.504730
-254.941315
-241.600189
-213.574112
-174.027100
-127.788300
-80.293121
-36.558067
-0.106117
27.520897
46.612816
58.673813
65.565910
68.799957
69.202492
67.058846
62.528389
56.055130
48.685577
41.981049
37.697617
37.278694
41.381073
49.576065
60.355576
71.497963
80.642418
86.061874
87.211525
84.846558
80.773453
77.017403
75.064827
75.322701
77.072083
78.734940
78.444992
74.503334
65.772980
52.029327
34.018387
13.372704
-7.773834
-27.419907
-44.314186
-58.284355
-70.307625
-82.061279
-95.216072
-110.706001
-128.125580
-145.477570
-159.461884
-166.200012
-162.183502
-145.296997
-115.571449
-75.166679
-27.963501
21.282707
67.856323
107.773804
138.252670
157.878418
166.728577
166.169342
158.680389
147.269302
134.828217
123.632286
114.849602
108.534515
103.858276
99.631004
94.760391
88.702965
81.544571
73.897987
66.479523
59.731628
53.539307
47.222435
39.866623
30.696602
19.549480
6.877934
-6.362280
-18.984453
-29.934067
-38.568924
-44.748749
-48.842018
-51.671902
-54.222939
-57.256016
-61.115677
-65.666580
-70.510124
-75.472534
-80.804466
-87.185959
-95.268692
-105.062935
-115.476883
-124.336014
-128.723953
-125.821083
-113.800529
-92.441521
-63.298378
-29.445213
5.235062
36.868973
62.404808
80.133881
89.724991
92.172997
89.298843
83.234116
76.037903
69.429565
64.586197
61.920059
61.051285
60.819199
59.493637
55.452545
47.737106
36.574799
23.450180
10.576202
0.019882
-7.147034
-11.235153
-13.538315
-15.453079
-17.615280
-19.485626
-19.734222
-17.218338
-11.792572
-4.774811
1.582184
5.053238
4.379074
-0.189362
-7.142365
-14.512802
-20.754807
-25.252609
-28.594925
-32.307755
-38.302292
-48.229416
-62.948959
-81.961685
-103.161072
-123.137146
-137.690857
-142.996414
-136.614716
-118.271393
-89.983185
-55.507996
-19.200897
14.963242
44.231232
67.357544
84.319061
95.986755
103.737167
108.955322
112.980942
116.608765
119.927383
122.234665
122.244232
118.609741
110.501083
97.985321
81.996521
64.055939
45.858429
28.818512
13.878479
1.436523
-8.674255
-17.059052
-24.451782
-31.495026
-38.421783
-44.885406
-50.058014
-52.998077
-53.084442
-50.432281
-45.944672
-41.200378
-38.004913
-37.767242
-40.983002
-47.023010
-54.290375
-60.879089
-65.349060
-67.456085
-68.360870
-70.222321
-75.309967
-84.953552
-98.720673
-114.276764
-127.743774
-134.802673
-132.001007
-117.808319
-93.215942
-61.369202
-26.635620
6.543121
34.769196
56.306580
71.022827
79.918396
84.562531
86.603455
87.539124
88.472168
90.038147
92.293396
94.823700
97.038452
98.595184
99.700958
101.065155
103.547791
107.627686
113.010468
118.487305
122.154449
121.855896
115.604187
102.178040
81.352295
54.004608
21.857880
-13.038696
-48.787231
-84.036194
-117.846771
-149.386719
-177.604614
-201.266602
-219.210938
-230.832916
-236.322479
-236.685425
-233.570435
-228.765564
-223.841980
-219.712219
-216.298981
-212.257996
-205.130188
-191.896088
-169.913513
-138.015015
-97.059814
-49.964417
-0.986542
45.318298
84.972412
115.353790
135.418365
145.551605
147.270081
142.688904
134.000458
123.132782
111.547180
100.196503
89.629120
80.061340
71.442413
63.700378
56.893860
51.248169
47.198456
45.280853
45.828094
48.752441
53.466125
58.987427
64.127075
67.965881
70.055054
70.601776
70.414703
70.590546
72.063995
74.981537
78.458557
80.714355
79.580902
73.252777
60.861755
42.559326
19.325653
-7.487640
-36.414429
-65.888031
-94.072845
-118.791107
-137.504974
-147.705719
-147.515320
-136.129883
-114.060944
-83.119446
-46.218079
-7.037567
30.407501
62.258514
85.413330
98.133972
100.314270
93.522095
80.417358
64.049866
47.089569
31.366089
17.930328
7.276764
-0.377136
-4.889801
-6.463135
-5.777985
-4.027100
-2.660645
-2.900543
-5.268372
-9.541626
-15.013855
-20.885864
-26.809204
-32.993561
-40.002869
-48.442230
-58.569733
-70.128235
-82.456024
-94.655884
-105.915405
-115.687561
-123.760376
-130.358734
-136.086700
-141.945435
-149.122131
-158.633789
-170.804382
-184.676300
-197.787720
-206.328278
-206.003784
-193.142822
-165.944122
-125.050812
-73.541473
-16.150513
41.921906
95.939346
142.410446
179.210892
205.403915
220.970383
226.523865
223.075974
211.971878
194.790405
173.223969
149.003601
123.718582
98.789200
75.394760
54.464676
36.782318
22.864975
12.976532
6.927643
3.991470
2.942673
2.230560
0.488846
-2.891006
-7.379501
-11.397827
-12.850983
-10.234863
-3.470688
5.765137
14.413589
19.229431
17.899597
9.892014
-3.574570
-20.118576
-37.228699
-53.133392
-67.328690
-80.655075
-94.769623
-111.449135
-131.600586
-154.552948
-177.637695
-196.589081
-206.611023
-203.739777
-186.268524
-155.207840
-114.192390
-68.458084
-23.423168
16.460716
48.443764
71.483917
85.866562
92.613991
93.152145
89.087532
82.039726
73.586128
65.170746
57.967644
52.924797
50.953049
52.840473
59.224812
70.282654
85.306274
102.533661
119.195923
132.139038
138.575043
136.977112
127.444603
111.723007
92.589058
73.040489
55.566307
41.534370
31.181778
23.881721
18.457687
13.627586
8.163940
1.127426
-8.030273
-19.445175
-32.918884
-48.040192
-64.359726
-81.283401
-98.008682
-113.255844
-125.096481
-131.197739
-129.185638
-117.277267
-94.918198
-63.118164
-24.430023
17.433868
58.271103
94.196655
122.330399
141.228317
150.875885
152.514664
148.136948
140.052582
130.610229
121.977112
115.684219
112.392975
111.610229
111.831818
111.005005
107.243439
99.434158
87.485382
72.218460
54.929779
36.908508
19.158936
2.460953
-12.573959
-25.357483
-35.349457
-42.244003
-46.125656
-47.672424
-48.114563
-48.962326
-51.629547
-56.894989
-64.624420
-73.956879
-83.755859
-93.300919
-102.786057
-113.237808
-126.011642
-141.966736
-160.536285
-179.426605
-194.782028
-202.029663
-197.098679
-177.722900
-144.089676
-98.968170
-47.019562
6.408768
56.389023
99.221054
132.517426
155.082535
166.603302
167.612991
159.623932
145.106171
127.152023
108.720001
91.822754
77.334930
65.200348
55.144043
47.292099
42.300964
40.814331
42.890076
47.651581
53.490097
58.597900
61.563293
61.680481
58.903381
53.506363
45.854614
36.367737
25.582245
14.225830
3.040222
-7.369858
-16.771286
-25.228195
-33.047485
-40.657623
-48.491409
-57.041656
-66.855820
-78.476471
-92.335846
-108.508057
-126.323181
-144.194992
-159.498627
-169.020645
-169.639420
-159.282257
-137.682541
-106.712753
-70.102951
-32.517776
1.559219
28.918625
48.051117
59.028275
62.961716
61.317200
55.464905
46.546021
35.666336
24.210159
13.955322
6.839706
4.570007
8.178909
17.675293
32.043259
49.446716
67.571396
83.957291
96.459671
103.560760
104.609070
99.922699
90.616760
78.355377
64.872803
51.561279
39.171051
27.837189
17.201996
6.789642
-3.586517
-13.629272
-22.567505
-29.538208
-34.165161
-37.089523
-40.061005
-45.404984
-55.171539
-70.255417
-89.870392
-111.449677
-131.207916
-144.832138
-148.406235
-139.391937
-117.420349
-84.643814
-45.444611
-5.302917
30.673035
59.109283
78.935211
90.990814
96.880371
98.028595
95.054382
88.086243
77.250977
63.243439
47.487915
31.786285
17.929321
7.300018
0.676239
-1.893677
-0.978210
2.287445
6.467590
10.164276
12.367737
12.712006
11.596924
9.964752
8.792847
8.574097
8.956970
8.824768
6.677246
1.384918
-7.330414
-18.674927
-31.154572
-43.308502
-54.224243
-63.850128
-72.836090
-82.103516
-92.430878
-104.244720
-117.396240
-130.937225
-142.886612
-150.194321
-149.208084
-136.543488
-110.245575
-70.711487
-20.897522
34.168030
88.647278
137.233429
176.407471
204.736084
222.763367
232.391418
236.060333
236.099243
234.058258
230.506012
224.911743
216.058594
202.523285
183.379089
158.707306
129.773560
98.860474
68.613434
41.355347
18.403564
-0.040039
-14.717041
-26.741180
-37.020599
-45.934540
-53.288147
-58.665771
-61.766083
-62.819885
-62.651520
-62.281250
-62.566437
-63.908203
-66.222137
-69.135345
-72.353668
-75.814270
-79.790604
-84.905792
-91.960281
-101.772141
-114.802750
-130.732956
-147.890335
-163.166534
-172.425476
-171.430984
-157.269455
-129.319733
-89.802246
-43.095581
5.530548
51.303375
90.836151
122.218231
144.549408
157.386719
160.593506
154.626648
141.094635
122.812744
103.296448
85.670593
71.695190
61.418274
53.609589
46.882904
40.571472
35.198914
32.100616
32.598892
37.141815
44.981903
54.341003
63.004593
69.222900
72.275925
72.640137
71.568268
70.326752
69.480911
68.580551
66.448898
61.928757
54.605759
45.150162
35.123734
26.302399
20.017242
16.633011
15.373947
14.459045
11.348328
3.254105
-12.232552
-36.437141
-68.919350
-107.256638
-147.154236
-183.246750
-210.196045
-223.847534
-222.174835
-205.811493
-177.783234
-142.645905
-105.377937
-70.126434
-39.469368
-14.319073
5.532764
20.736263
31.760212
38.756775
41.749336
40.966286
37.126278
31.348911
24.993740
19.388306
15.702213
14.801775
17.256418
23.301750
32.900433
45.696259
60.917404
77.343887
93.347435
107.094086
117.041779
122.341675
123.054451
120.005569
114.239746
106.426514
96.396584
83.185455
65.507500
42.441895
13.876022
-19.359444
-55.851990
-94.110054
-132.866394
-171.062515
-207.446884
-239.981354
-265.388428
-279.270996
-277.122498
-255.834824
-215.282654
-159.188721
-94.635712
-30.334312
25.702843
68.272179
95.847717
110.135284
114.620163
112.925262
107.884949
101.331436
94.489380
88.432877
84.118195
82.173569
82.583801
84.625763
87.184601
89.376678
90.902359
92.104599
93.575150
95.461288
96.974991
96.313522
91.167587
79.546661
60.544708
34.751465
4.128128
-28.654800
-60.877808
-90.384338
-115.749268
-136.138062
-151.007462
-159.959702
-162.685303
-159.311447
-150.744720
-138.948761
-126.865158
-117.838562
-114.839676
-119.328613
-130.619308
-145.508179
-158.834549
-164.733017
-158.113403
-136.128845
-98.919556
-49.556915
6.891296
64.493896
117.786026
162.600479
196.337784
218.031235
227.995560
227.510254
218.556259
203.415222
184.275940
162.728317
139.503693
114.703247
88.316406
60.824753
33.569946
8.469421
-12.569946
-28.261963
-38.228027
-42.818878
-42.836517
-39.039642
-32.220032
-23.245667
-13.250702
-3.597473
4.306763
9.437439
11.297119
10.024597
6.354858
1.258575
-4.184387
-9.035706
-12.863220
-15.592285
-17.381653
-18.256592
-17.959412
-16.218597
-13.195557
-9.785706
-7.637360
-8.457794
-13.122711
-21.085297
-30.449402
-38.775970
-44.200623
-46.289429
-46.190094
-45.999664
-47.854309
-52.935547
-61.293976
-71.960449
-83.578735
-94.898621
-105.227020
-114.158722
-121.452850
-126.712708
-129.049988
-127.383484
-120.751129
-108.806915
-92.194458
-72.566315
-52.285248
-33.769989
-18.982819
-8.821503
-3.196808
-1.204742
-1.490845
-2.803162
-4.202850
-5.103271
-5.306519
-4.920380
-4.287933
-3.957672
-4.473389
-5.945496
-7.941315
-9.224487
-8.176483
-3.371002
5.609467
17.596130
29.602142
37.552460
37.449005
26.778381
5.714508
-22.556915
-52.339844
-76.789795
-89.609955
-86.572174
-66.508423
-31.464996
13.706055
62.483353
107.937653
144.055313
166.871811
175.038589
169.611618
153.522354
130.557175
104.419159
78.254333
54.179108
33.406738
16.396774
3.213623
-6.175751
-11.611847
-12.741547
-9.225098
-1.105347
10.752426
24.515457
37.665451
47.554916
52.226974
50.905731
44.207535
33.878006
22.138885
10.928040
1.300064
-6.806641
-14.282257
-22.247543
-31.268494
-40.905075
-49.717651
-55.780060
-57.545242
-54.670807
-48.485474
-41.949493
-38.919327
-43.094269
-56.756302
-79.840485
-109.500000
-140.503891
-166.320023
-180.731720
-179.378052
-160.915176
-127.195251
-82.611618
-32.908203
16.272736
60.299454
95.875381
121.070297
135.123383
138.260818
131.755020
117.826782
99.307678
79.200378
60.058014
43.598633
30.674957
21.534515
16.141800
14.500290
16.610931
22.423569
31.561081
43.182663
55.922409
68.092697
78.140121
85.100189
89.086380
91.274948
93.447845
97.084946
102.502304
108.338486
111.784454
109.521149
98.921906
79.105621
51.237457
18.213989
-16.290344
-48.826233
-77.013672
-99.846832
-117.653351
-131.576218
-143.072922
-153.309387
-162.782059
-171.108856
-176.987534
-178.517975
-173.672546
-160.901245
-139.752625
-111.145111
-77.307159
-41.336258
-6.531799
24.297272
49.242157
67.419769
78.941299
84.613846
85.819260
84.218399
81.608383
79.723923
80.028275
83.467041
90.141495
99.299789
109.404831
118.570251
125.187622
128.514114
128.806168
127.174896
124.881973
122.797653
120.937408
118.545319
114.536240
108.024689
98.704773
86.743347
72.512115
56.111481
37.236404
15.376846
-9.785889
-37.863556
-67.586777
-96.984039
-123.950394
-146.883087
-165.010132
-178.539520
-188.387726
-195.777054
-201.869492
-207.299500
-211.765717
-213.675568
-210.091141
-197.267929
-171.792023
-131.997635
-78.973953
-16.671829
48.908066
111.200912
164.566360
204.914505
230.041519
239.113235
232.516068
211.844650
179.938248
140.693192
98.370346
56.699631
18.264343
-15.436096
-43.420334
-64.671539
-77.865448
-81.898636
-76.587082
-63.206192
-44.529709
-24.122330
-5.400223
9.082977
17.902481
20.640594
17.536423
9.177231
-3.559357
-19.539810
-37.472183
-55.925186
-73.617538
-89.641525
-103.576965
-115.759537
-127.050522
-138.649521
-151.750336
-167.172409
-185.097534
-204.989044
-225.447357
-244.262878
-258.721313
-265.996826
-263.909241
-251.556473
-229.596817
-200.040924
-165.433777
-127.923782
-88.481773
-46.975685
-2.859062
43.709457
90.874725
134.884552
170.945206
194.683014
203.754608
198.758911
183.102417
161.878662
140.416733
123.022537
112.324722
109.378174
113.928009
124.780228
139.828384
156.127304
170.074219
177.926971
176.691208
165.114349
144.171631
117.026619
87.943359
60.888374
38.190720
19.930618
4.375046
-10.911522
-27.688171
-46.279442
-65.648132
-84.158752
-100.554367
-114.455231
-126.441910
-137.443481
-148.294678
-159.534409
-171.396530
-183.883865
-196.499496
-207.913284
-215.798370
-217.121017
-209.024887
-189.794006
-159.546188
-120.046494
-73.930984
-23.826065
28.132263
80.037933
129.746002
174.705414
212.209534
240.204834
257.985535
266.213013
266.232635
259.222809
245.621796
225.406555
198.963806
167.913391
135.238312
104.741852
79.715454
61.927216
51.136322
45.458282
42.185577
38.744446
33.404175
25.539185
15.600922
4.732635
-5.602905
-14.109100
-20.115143
-23.908325
-26.643097
-29.926117
-35.053986
-42.382172
-51.201080
-59.969757
-67.140106
-71.962646
-74.847870
-77.097778
-80.405273
-86.351685
-95.907837
-109.209808
-125.115997
-140.942963
-152.551270
-155.131561
-144.649475
-119.454132
-81.237366
-34.488098
14.946442
61.915222
103.219269
137.943024
166.633942
190.217499
209.161041
223.288605
232.158417
235.443604
233.138336
225.485901
212.902161
195.899536
175.307953
152.347351
128.745361
106.522247
87.607758
73.531891
64.997284
61.678375
62.205536
64.426788
65.822632
64.166321
57.974640
46.848206
31.437531
13.219635
-6.002747
-24.628265
-41.632812
-56.629913
-69.746796
-81.266785
-91.415817
-100.360016
-108.347549
-115.865677
-123.905899
-133.632126
-146.088852
-161.507538
-178.710098
-195.018402
-206.534546
-209.079239
-199.290558
-175.632080
-138.981812
-92.401123
-40.318771
12.551697
62.015778
104.904663
138.982376
162.756546
175.387619
176.893387
168.331284
151.910034
130.585556
107.492508
85.226898
65.416870
48.795303
35.467758
25.446655
18.775452
15.475357
15.381042
17.830124
21.793457
25.984314
29.353958
31.313934
31.948227
31.917557
32.058456
33.024460
34.895447
37.188065
38.969101
39.206375
37.052498
31.882942
23.385513
11.530708
-3.316322
-20.357018
-38.431458
-56.358803
-73.381989
-89.418556
-104.912750
-120.175407
-134.753967
-146.954208
-154.262939
-154.165314
-145.249939
-127.901306
-104.229645
-77.455460
-50.885624
-27.248425
-8.241604
5.389828
13.530968
16.471636
14.610840
8.455189
-1.400307
-14.188423
-28.987867
-44.812904
-60.621536
-75.328804
-87.701340
-96.418709
-100.161293
-98.024506
-89.932053
-76.909828
-60.995785
-44.701778
-30.260742
-18.944920
-10.834927
-5.033588
-0.151085
4.938000
10.667091
16.500702
21.041832
22.469616
19.311687
11.069061
-1.367264
-15.748566
-29.331161
-39.692787
-45.797157
-48.380196
-49.941856
-53.803947
-62.804970
-77.929787
-97.355537
-116.561020
-129.442657
-130.330200
-115.921875
-86.379791
-45.287003
1.559662
47.893829
88.406342
119.646088
140.083847
149.859390
150.268936
143.356644
131.459625
116.738022
100.962936
85.300034
70.422729
56.744598
44.578400
34.182571
25.809341
19.678619
16.035614
15.180878
17.417938
22.644745
30.218765
38.900558
47.153976
53.674438
57.980026
60.479584
62.214981
64.204498
66.763840
69.177567
69.786499
66.559021
57.891846
43.374634
23.993500
1.770386
-21.034592
-42.860291
-63.318130
-83.091095
-102.996201
-123.026886
-141.602264
-155.717651
-161.714493
-156.618668
-139.294342
-110.771805
-74.048508
-33.102478
8.227600
47.002136
81.411163
110.605743
134.214142
151.750793
162.628586
166.207336
162.238113
151.259384
134.773621
115.084290
94.944580
76.960953
62.997391
54.014008
49.971573
50.079849
53.026733
57.321640
61.287308
63.212204
61.601242
55.542145
45.096268
31.291641
15.820221
0.343597
-14.221451
-27.904999
-41.410400
-55.432831
-69.983154
-84.097351
-96.231262
-105.086517
-110.411346
-113.458527
-116.569992
-122.413651
-132.718826
-147.530411
-164.682404
-180.189163
-189.086548
-186.717499
-170.196625
-139.272552
-96.744980
-47.756027
1.312500
44.618149
78.092224
100.100769
111.327515
113.900635
110.506500
103.499435
94.619019
84.916061
74.973648
65.084564
55.434479
46.260727
37.883331
30.756195
25.385529
22.294952
21.860397
24.065964
28.482056
34.127075
39.803940
44.395157
47.139130
47.827454
46.545380
43.379715
38.233215
30.903931
21.412796
10.381088
-1.030151
-11.352707
-19.317169
-24.380371
-26.851364
-27.760391
-28.637177
-31.180283
-36.937622
-47.030731
-61.584152
-79.292648
-97.152283
-110.880096
-115.827087
-108.439911
-87.564911
-55.037308
-15.407867
25.199020
60.913574
87.606308
103.780685
110.513168
110.328674
105.965790
99.342651
91.203171
81.493164
70.051407
57.135849
43.559052
30.509987
19.195824
10.618073
5.594948
4.673500
8.125748
15.752586
26.599701
39.023087
50.958138
60.479759
66.368355
68.413383
67.191177
63.642639
58.460281
51.664574
42.655373
30.594028
14.887814
-4.291676
-25.962761
-48.503113
-70.218597
-89.822357
-106.908600
-122.062820
-136.570282
-152.013947
-169.303452
-187.971802
-205.741928
-218.753082
-222.410706
-212.798630
-187.785446
-147.674652
-95.161957
-34.677818
28.522673
89.221291
142.943741
186.489807
218.193451
238.009552
247.252960
247.940628
242.128403
231.357422
216.520599
198.154053
176.915497
153.957672
130.881042
109.543854
91.484856
77.597252
67.825760
61.110443
55.801567
50.066124
42.578217
33.013573
22.151245
11.549973
2.933289
-2.591232
-4.954575
-5.200867
-5.120514
-6.854080
-12.377792
-23.065048
-39.381256
-60.611679
-85.045502
-110.326599
-134.255936
-155.405746
-173.568726
-189.385040
-203.572357
-215.978912
-224.925842
-227.303162
-219.396790
-198.173126
-162.635590
-114.463196
-57.932495
0.967377
55.973907
101.876053
135.208923
154.484131
159.776901
152.338516
134.386337
109.031006
80.096008
51.530029
26.660065
7.508453
-5.405914
-12.650360
-15.176453
-13.695526
-8.560059
-0.017731
11.382294
24.583038
37.929962
49.709503
58.660461
64.366547
67.329681
68.479340
68.592712
67.563232
64.119904
56.211700
41.908783
20.404785
-7.351837
-38.886780
-71.232117
-101.986877
-130.223022
-156.444794
-181.922424
-207.675842
-233.564728
-257.808411
-277.221680
-287.911743
-286.153870
-269.342529
-236.736023
-189.727661
-131.789856
-67.862183
-3.492188
56.133270
106.850220
145.938568
172.137268
185.436340
186.976135
178.678406
163.232422
143.658417
122.859375
103.105743
85.689026
70.846497
58.109222
46.930450
37.010498
28.523193
21.873291
17.388977
15.143127
14.908447
16.328613
18.960815
22.517273
26.518066
30.437317
33.637024
35.553589
35.772156
33.828125
29.133057
20.864868
8.248901
-9.038452
-30.555420
-55.002991
-80.660278
-105.973022
-130.218506
-153.528687
-176.494751
-199.428650
-221.581238
-240.749573
-253.498352
-255.919434
-244.626953
-217.790466
-175.923706
-122.068604
-61.337402
0.104553
56.371521
103.097168
138.035004
161.017700
173.363525
177.035919
173.903931
165.473206
152.968811
137.500732
120.365387
102.997894
86.796112
72.824036
61.481079
52.526428
45.228699
38.774353
32.449097
25.923370
19.073425
11.776337
3.851532
-4.982147
-14.821198
-25.529053
-36.558319
-47.186829
-56.712372
-64.704865
-71.003326
-75.714417
-79.199982
-82.162903
-85.687439
-91.058289
-99.362183
-111.014130
-125.362976
-140.591675
-153.829468
-161.665710
-160.771149
-148.714294
-124.729797
-90.168701
-48.395020
-4.041229
38.152344
74.373505
102.450684
121.788788
132.880310
136.871185
135.159210
129.337250
121.067352
111.843048
102.790619
94.609497
87.741821
82.622955
79.801483
79.872437
83.069397
89.171417
97.447144
107.013855
116.976501
126.499847
134.522156
139.535675
139.657410
133.142853
119.038391
97.691010
70.778595
40.783203
10.402100
-18.122620
-43.119598
-63.739014
-79.699249
-91.224731
-99.211731
-105.163635
-111.173248
-119.246094
-130.695557
-145.229523
-160.747772
-173.567596
-179.507080
-175.151703
-158.929413
-131.418549
-95.117310
-53.594604
-10.571259
30.627869
67.239532
97.124969
118.686249
131.060730
134.406067
129.927277
119.733795
106.307098
91.880371
77.818848
64.555145
51.849152
39.237427
26.591187
14.231201
2.889954
-6.720917
-14.316711
-20.223785
-25.338501
-30.769409
-37.447937
-45.899078
-55.994598
-67.022552
-77.953186
-87.820648
-96.068695
-102.781982
-108.666687
-114.672028
-121.349426
-128.556091
-135.465973
-141.000793
-144.585236
-146.655823
-148.694122
-152.634186
-159.840637
-170.224701
-181.806091
-191.057281
-193.818451
-186.369232
-166.284760
-133.010193
-87.986816
-34.669403
21.892365
75.785583
121.268326
154.111954
172.490387
177.331360
171.587936
159.029785
142.995361
125.695694
108.260788
91.282394
75.520248
61.935898
51.632751
45.295395
42.941895
43.885117
47.142349
51.599808
56.288559
60.510475
63.737877
65.558914
65.719048
64.114799
60.763252
55.791862
49.370903
41.774708
33.400955
24.805779
16.502087
8.874208
1.958418
-4.479118
-10.884354
-17.709309
-25.339188
-34.298901
-45.366482
-59.400097
-76.745857
-96.620674
-116.413788
-131.996780
-138.651947
-132.634827
-112.529190
-79.900986
-38.834892
5.303631
47.269806
83.168167
110.816437
129.522095
139.698242
142.365265
138.917252
130.990784
120.347633
108.724884
97.617790
88.200531
81.054878
76.344795
73.810699
72.903786
72.944992
73.144684
72.857750
71.627113
69.255569
65.734070
61.083267
55.089378
47.298721
37.157509
24.300842
8.796021
-8.742126
-27.345047
-46.027649
-64.137497
-81.654007
-99.042007
-116.982086
-136.017471
-156.302475
-177.623932
-199.482178
-221.148819
-241.417892
-258.507935
-270.002045
-273.242920
-266.126556
-247.786041
-219.025650
-181.901321
-138.790344
-91.376633
-40.281448
14.323181
71.426529
128.211349
180.053085
221.641251
248.989655
260.853210
259.049927
247.369385
229.872070
209.566803
188.035980
166.192352
145.012817
126.197266
111.632843
102.542938
98.819000
98.928802
100.608765
101.705963
100.859192
97.688477
92.747559
87.040771
81.575012
77.057892
73.534882
70.479218
67.062286
62.698303
57.312164
51.398926
45.384857
39.022675
31.050232
19.265045
1.267181
-24.733521
-59.329895
-101.644989
-149.453522
-199.271713
-246.509308
-285.747192
-311.674744
-320.088379
-308.993347
-279.232117
-234.263351
-179.426895
-120.774033
-64.140442
-14.269165
25.518280
53.524750
69.679565
75.228088
72.394379
63.911499
52.706696
41.574127
33.050995
29.127533
31.020721
38.913300
51.945190
68.572632
86.997284
105.618164
123.165009
138.643768
151.188354
160.018219
164.473267
164.254089
159.593872
151.197571
140.100189
127.268890
113.343140
98.304108
81.748962
63.219971
42.634766
20.667480
-1.301147
-21.670837
-39.280090
-53.899902
-66.406219
-78.355103
-91.355286
-106.378967
-123.379333
-141.235596
-158.003525
-171.219055
-178.256165
-176.725616
-164.953979
-142.605209
-111.087921
-73.582001
-34.398621
1.973541
32.064667
54.122986
68.194366
75.551758
77.941833
76.831665
73.282654
67.986969
61.604156
55.014252
49.340149
45.768188
45.293579
48.437195
55.088715
64.363953
74.904510
84.992218
92.967682
97.612091
98.271393
94.913544
87.776062
77.129303
63.228882
46.498810
27.789490
8.495575
-9.624847
-25.105927
-37.252838
-46.448334
-53.910126
-61.248108
-69.842606
-80.639954
-93.975494
-109.660782
-126.660675
-142.870941
-154.855316
-158.134445
-148.217896
-121.954559
-78.982132
-22.347931
41.947937
106.131378
162.733093
206.279144
234.257324
247.174957
247.650055
239.255753
225.489441
209.160629
192.428665
176.974792
164.241608
155.244461
150.467514
149.610825
151.696381
155.374344
159.317337
162.573181
164.676651
165.609756
165.442169
164.082748
161.026917
155.222992
145.326645
130.129913
109.052734
82.539658
52.195210
20.310619
-10.745964
-39.209724
-64.364594
-86.395439
-106.102089
-124.374191
-141.832993
-158.671616
-174.822205
-190.151474
-204.619400
-218.277374
-230.950134
-241.844742
-249.338104
-251.148499
-245.134644
-230.253357
-207.342529
-179.103210
-149.528229
-122.530182
-100.978882
-86.034637
-77.302002
-73.315094
-72.103760
-71.566925
-69.702606
-65.068115
-57.015045
-45.909302
-32.854584
-19.051422
-5.237915
8.633362
23.133240
38.660553
54.752594
69.907623
81.997772
89.143524
90.490295
86.598083
79.128174
70.113800
60.983215
52.132141
43.080811
33.010681
21.475281
8.803711
-3.996521
-15.720154
-25.595154
-33.694275
-40.892090
-48.606323
-58.186279
-70.488037
-85.453552
-101.815125
-116.947754
-127.211060
-128.713684
-118.925232
-98.006836
-69.606384
-40.123230
-16.600830
-4.324097
-4.885010
-15.983826
-32.717163
-49.905457
-63.929199
-73.499878
-79.134216
-81.992859
-82.900208
-82.032288
-79.176941
-74.177795
-67.048340
-57.828003
-46.362488
-32.323242
-15.406860
4.253113
25.779297
47.615784
67.898438
84.903625
97.222290
104.056335
105.025452
100.289703
90.549561
76.862305
60.767517
43.849487
27.254822
11.306702
-4.143127
-19.188416
-33.219482
-45.069153
-53.881897
-59.665833
-63.559265
-67.397095
-72.647461
-79.175781
-84.790955
-85.875610
-78.877869
-62.252686
-36.681458
-4.553894
30.786682
65.869690
97.746277
124.337036
144.461182
157.714783
162.772034
159.339508
148.715881
133.156921
114.353058
92.701172
67.521667
38.008423
4.279968
-34.722595
-77.279663
-118.499268
-152.238892
-174.489502
-184.732300
-185.017334
-178.453125
-167.794006
-159.296570
-156.719055
-159.688904
-165.045959
-170.350189
-175.172424
-180.211273
-186.261597
-193.807373
-208.972870
-235.642029
-272.550781
-313.907654
-353.348389
-386.021576
-408.583618
-419.546478
-384.560455
-293.590576
-168.023285
-46.102814
46.135651
103.754822
134.231384
147.808365
152.152832
151.746948
143.236633
125.068436
100.695328
77.411835
60.786301
51.452690
48.428101
49.365128
52.166191
51.429703
44.601280
33.498669
23.201889
17.294128
16.192703
18.368279
21.857300
25.831863
28.441895
30.760208
32.623398
36.946259
45.566849
58.154938
72.960220
88.083893
102.475922
114.927643
125.710236
136.683472
151.123596
171.269165
197.228333
226.797638
255.661224
278.455688
289.822876
286.843719
270.293793
244.981903
217.506226
193.951233
178.306488
171.476624
171.712830
175.764343
180.255066
182.585938
181.464569
176.364716
167.079956
153.473785
135.751068
114.750977
92.225677
70.714355
52.768188
40.284058
33.557251
31.165039
30.443268
28.493896
23.011444
12.868896
-1.650330
-19.121307
-37.365845
-54.146515
-67.867737
-77.930389
-84.741058
-89.385590
-92.975555
-96.240143
-99.408142
-102.376770
-104.874893
-106.757172
-107.881500
-108.071594
-107.153320
-105.160599
-102.575226
-100.368652
-99.809631
-101.862701
-106.648773
-113.273666
-119.673462
-123.016922
-120.310516
-109.210251
-88.761841
-59.956329
-25.722382
9.775574
42.138977
67.861053
84.943390
93.114227
93.431641
87.759613
78.255371
66.875275
55.223907
44.316010
34.662201
26.400177
19.673645
14.829712
12.439697
12.749481
15.538513
19.924164
24.636932
28.777100
31.971649
34.589752
37.266846
40.375336
43.730927
46.757202
48.844055
49.588806
49.040131
47.271545
44.205292
39.636658
33.408447
25.921722
18.284302
11.781403
7.069611
3.375366
-1.821350
-12.080063
-30.404709
-57.613190
-91.323410
-126.192139
-155.457596
-173.009567
-175.178574
-161.701752
-135.268692
-100.368759
-61.975494
-24.275436
9.799667
38.566162
61.304108
77.867661
88.339966
93.063583
92.649948
88.093643
80.815445
72.415344
64.314529
57.431839
51.936600
47.250702
42.500671
36.898819
30.117386
22.455917
14.517624
6.837158
-0.570862
-8.379791
-17.696960
-29.516495
-44.155304
-60.942581
-78.436371
-95.070267
-109.870483
-122.823395
-134.865128
-147.215042
-160.825500
-175.993271
-192.422577
-209.404388
-225.933395
-240.536972
-251.055389
-254.857773
-249.395905
-233.130890
-206.316986
-170.790955
-129.174606
-83.695908
-35.531006
14.802612
66.430328
117.063141
162.858826
199.295959
222.917145
232.688385
230.523163
220.516754
207.384735
194.888092
184.956787
177.591248
171.641663
165.821655
159.451996
152.586426
145.783844
139.603638
134.100281
128.871063
123.111786
116.009552
106.978210
95.527435
81.270111
63.927246
43.546448
20.744110
-3.255341
-26.931061
-48.912445
-68.473297
-85.642487
-101.078369
-115.770966
-130.817169
-147.148163
-165.326385
-185.182129
-205.505295
-223.888458
-237.031525
-241.515823
-234.657196
-215.204453
-183.490234
-141.137085
-90.767242
-35.517731
21.054962
75.063782
122.705627
160.666412
186.915894
201.151947
204.908875
201.074585
193.127350
184.178986
176.265900
170.020325
164.748016
158.878357
150.716064
138.983032
123.338745
104.523407
83.994934
63.462341
44.297852
27.311066
12.562103
-0.300415
-11.832886
-22.739136
-33.765350
-45.772186
-59.533722
-75.422729
-93.164093
-111.657806
-129.254395
-144.470398
-156.460571
-165.507629
-172.837921
-180.158539
-189.011353
-200.399597
-214.520142
-230.684540
-247.315796
-261.886292
-271.292389
-272.458557
-263.114960
-242.540771
-211.744781
-172.865234
-128.144135
-79.015869
-26.057007
30.105164
87.492615
142.035889
188.205444
220.705566
236.600159
236.480896
224.172546
205.059692
183.793030
163.038940
143.438110
124.755615
107.316223
92.494324
82.107605
77.066345
76.497742
77.765259
77.740845
74.337769
67.317017
58.295776
49.477539
42.372131
37.083496
32.512817
27.221130
20.171204
11.120850
0.403870
-11.455505
-24.018188
-36.890930
-49.620361
-61.711548
-72.792725
-82.942810
-92.730408
-102.895508
-113.589478
-123.910339
-131.596680
-133.388123
-125.968384
-106.982422
-75.866760
-34.204895
14.507141
65.775574
114.954590
158.139954
192.647217
216.901733
230.458740
233.869507
228.688782
217.313354
202.572449
187.189453
173.061157
160.948425
150.517761
140.914246
131.465881
122.155518
113.791016
107.722107
105.345886
107.416138
113.662170
122.416443
130.759888
135.213013
132.481384
120.600098
99.480286
70.801697
37.446350
2.549927
-31.290710
-62.439819
-90.157959
-114.375305
-135.447937
-154.020813
-170.949158
-187.245422
-203.865601
-221.502441
-240.326050
-259.709534
-278.188873
-293.445190
-302.586670
-302.761780
-291.645264
-268.078796
-232.213684
-185.465637
-130.223511
-69.937012
-8.702942
49.051514
99.031189
137.979492
164.185791
177.803284
180.595215
175.271667
164.657898
151.128540
136.428223
121.679810
107.627014
94.826538
83.745728
74.664429
67.740417
62.886841
59.861145
58.283325
57.483521
56.789917
55.420898
52.670532
48.077209
41.713928
34.285767
26.965515
21.026245
17.180481
15.318481
14.419312
12.998657
9.786255
3.972168
-4.595276
-15.635193
-28.595459
-42.780884
-57.398193
-71.824707
-85.785217
-99.629639
-114.187195
-130.312683
-148.031281
-165.823883
-180.679443
-188.574310
-185.618835
-169.088104
-138.169952
-94.308777
-40.976379
16.861511
73.713623
124.411987
165.221436
194.259399
211.460632
218.331116
217.296021
211.204956
202.801575
194.210693
186.604187
180.055298
173.687866
166.186462
156.419556
143.953918
129.165771
112.892334
95.972595
78.925781
61.961243
45.162384
28.759338
13.244690
-0.836548
-13.179138
-23.972046
-33.855927
-43.867889
-54.912720
-67.349487
-80.783752
-94.164581
-106.263733
-116.222351
-123.916565
-129.845184
-134.931854
-140.111740
-146.184509
-153.838989
-163.557541
-175.381577
-188.419556
-200.730087
-209.365906
-211.049240
-203.014679
-183.688995
-153.225754
-113.382965
-67.361481
-19.440033
25.850647
64.583740
94.318481
114.693695
127.153015
134.112579
137.877014
139.843018
140.332245
139.087769
135.938263
131.088287
125.127075
118.607605
111.714111
104.323700
96.177078
87.123428
77.272995
66.897263
56.246506
45.407791
34.332031
22.798676
10.633545
-2.187195
-15.472839
-28.765533
-41.617630
-53.598648
-64.403763
-73.796432
-81.481293
-87.027435
-90.119873
-90.741699
-89.559906
-88.064117
-88.187485
-91.789108
-99.743958
-111.400887
-124.364136
-134.901718
-138.895691
-132.969849
-115.536346
-87.427582
-51.726166
-12.925110
24.189468
55.732147
79.322792
94.229713
100.995277
100.949005
95.629532
86.563477
75.117241
62.567146
50.025360
38.401695
28.297157
19.964523
13.468185
8.839149
6.146790
5.530853
7.114273
10.716995
15.833809
21.324722
25.904140
28.467918
28.611397
26.702946
23.680103
20.439896
17.391487
14.487518
11.336826
7.760654
3.883398
0.032488
-3.537186
-6.929558
-10.683496
-15.634813
-22.627218
-32.351463
-45.275112
-61.638000
-81.398689
-103.966057
-127.908279
-150.909851
-169.922562
-181.551910
-182.825333
-171.944504
-148.846771
-115.521095
-75.591553
-33.511974
6.475654
41.194328
68.892929
88.909195
101.382408
106.927872
106.516823
101.689903
94.433235
86.940971
81.134941
78.269699
78.571960
81.388657
85.500305
89.284836
91.244324
90.156265
85.369728
76.866356
65.302811
51.659164
36.978336
22.123264
7.530376
-6.601887
-20.242756
-33.578064
-46.802094
-60.112633
-73.674637
-87.398865
-101.048309
-114.298523
-126.833298
-138.522171
-149.468933
-160.012222
-170.685745
-182.236298
-195.281616
-209.941345
-225.417053
-239.620605
-249.372543
-251.073639
-241.713028
-219.768433
-185.526443
-140.831390
-88.504608
-31.948629
25.269398
79.430107
126.895058
164.571777
190.507935
204.224014
206.832870
200.497192
187.773285
171.082581
152.362488
133.135712
114.694626
98.162643
84.377174
73.782356
66.332123
61.528442
58.668839
57.104637
56.391678
56.367180
57.080170
58.467598
60.180649
61.520432
61.489319
59.083542
53.535446
44.529892
32.233444
17.183060
0.133102
-18.109818
-36.846512
-55.736099
-74.740540
-93.958984
-113.259842
-131.731018
-147.363678
-157.110733
-157.476242
-145.412781
-119.494087
-80.559517
-31.956177
20.896820
71.751663
114.876587
146.269531
164.214951
169.266541
163.492645
149.709381
130.783020
109.220169
87.133057
66.152679
47.325974
31.078659
17.327499
5.754242
-3.756897
-10.919159
-15.147644
-15.943100
-13.325714
-8.144501
-1.797256
4.239624
8.814056
11.494293
12.442383
12.085266
10.767990
8.569016
5.353943
1.039124
-4.346855
-10.605431
-17.433884
-24.565102
-31.881844
-39.179337
-45.976830
-51.563721
-55.202690
-56.679733
-56.638710
-56.582634
-58.123188
-62.059696
-67.665863
-72.647766
-73.976196
-69.118759
-57.065483
-38.670486
-16.206665
7.502220
29.982651
49.585205
65.451241
77.341187
85.377708
89.851067
91.143433
89.757927
86.270546
81.379326
75.876869
70.535179
65.989532
62.681168
60.675629
59.663292
59.093399
58.338081
56.740768
53.815170
49.211288
42.667343
34.066795
23.380997
10.709724
-3.709373
-19.383614
-35.643093
-51.602943
-66.360214
-79.294197
-90.288055
-99.760941
-108.430244
-117.077011
-126.080734
-135.336349
-144.233170
-151.992233
-158.127625
-162.825073
-167.066711
-172.448776
-180.508179
-191.924011
-205.820862
-219.408157
-228.503937
-228.552628
-215.954391
-189.141006
-148.960861
-98.549774
-42.621902
13.396866
64.332825
106.038010
136.022247
153.882050
161.162903
160.853256
156.371033
150.591461
145.097855
140.162872
135.203476
129.512283
122.956238
116.166351
110.246857
106.306686
105.004639
106.197159
109.128769
112.726440
115.894592
117.735291
117.441925
114.286179
107.789764
97.988800
85.594727
71.847504
58.088043
45.189331
33.294891
21.967865
10.620575
-1.027924
-12.817719
-24.359314
-35.452423
-46.266418
-57.303421
-69.132477
-82.108261
-96.022247
-109.800598
-121.356216
-127.754532
-125.695343
-112.628754
-87.912567
-53.309067
-12.855301
28.331085
65.501511
95.377060
116.619034
129.414429
134.805664
134.070389
128.571243
119.753677
109.148575
98.335144
88.567078
80.513550
74.178131
69.022186
64.225586
59.102188
53.388657
47.342865
41.636841
36.911835
33.454269
31.046753
29.028717
26.612076
23.229172
18.709564
13.204208
7.058228
0.552689
-5.971848
-12.137802
-17.549973
-21.936714
-25.440758
-28.673302
-32.580070
-37.932411
-45.035240
-53.382324
-61.884926
-69.252899
-74.413795
-76.925652
-77.219009
-76.543243
-76.824402
-80.133469
-87.999283
-100.585892
-116.338493
-132.000992
-143.450470
-146.893967
-139.920944
-122.114479
-95.036407
-61.763435
-26.017120
8.542118
38.920063
63.038151
79.816772
89.228348
92.020676
89.596397
83.714760
76.179436
68.591560
62.116001
57.360275
54.414474
52.956505
52.434319
52.340950
52.409760
52.526344
52.660019
52.678116
52.267082
50.997402
48.491352
44.590385
39.465744
33.451763
26.918324
20.141050
13.132393
5.801670
-1.886459
-9.827625
-17.636360
-24.777241
-30.732071
-35.298435
-38.735104
-41.788296
-45.527637
-50.840473
-58.188538
-67.221565
-76.845848
-85.733200
-92.876915
-98.097176
-102.343925
-107.521492
-115.826485
-128.899567
-147.139832
-169.079559
-191.482071
-209.802078
-219.185944
-215.722565
-197.588272
-165.856689
-124.422913
-78.963577
-35.331879
1.944881
30.667267
50.818398
63.724300
71.006332
73.903183
73.169731
69.587280
64.346939
58.984314
55.098824
53.701103
55.020432
58.705906
64.275742
71.506027
80.464661
91.284645
103.695610
116.742599
128.969742
138.614548
144.253372
145.150574
141.496384
134.161957
124.326187
112.996216
100.703430
87.492722
73.068588
57.385670
40.851669
24.470955
9.619457
-2.477051
-11.146828
-16.526443
-19.553329
-21.766764
-24.917976
-30.707727
-40.400787
-54.510189
-72.416306
-92.161140
-110.481499
-123.364182
-127.010315
-119.010933
-99.281883
-70.182602
-35.904572
-1.209618
29.879269
54.900944
73.185974
85.369354
92.740921
96.604370
97.838554
96.938629
94.019783
89.125450
82.421318
74.469498
66.184280
58.794472
53.421333
50.759804
50.952110
53.587379
57.964527
63.213127
68.461357
72.725174
74.913269
73.937759
68.925896
59.564259
46.270668
30.246719
13.092987
-3.570023
-18.553108
-31.440742
-42.434113
-52.013153
-60.480011
-67.671570
-73.034454
-75.987778
-76.539612
-75.480286
-74.233673
-74.340149
-76.975601
-82.696884
-91.575882
-103.477600
-118.152191
-134.868362
-152.073395
-167.153000
-176.724731
-177.531891
-167.463470
-146.282883
-115.728119
-79.028809
-39.947647
-1.741730
33.322235
64.143692
90.266266
111.405952
126.950302
135.934082
137.475540
131.466888
119.079941
102.612579
84.881927
68.290634
54.182419
42.726364
33.436279
25.746399
19.392075
14.380157
10.750305
8.339386
6.827148
6.030640
6.114777
7.480927
10.462128
14.925568
20.022400
24.363281
26.457504
25.179993
20.047394
11.261780
-0.392181
-13.798859
-27.829010
-41.330078
-53.173889
-62.292328
-67.784119
-69.273224
-67.287231
-63.372131
-59.778351
-58.834259
-62.073425
-69.715393
-80.550049
-92.313690
-102.312164
-107.841949
-106.508179
-96.366608
-76.203461
-46.098267
-7.765656
35.387299
78.716232
117.340973
147.151428
165.615814
171.923370
166.851303
152.205475
130.318146
103.715454
74.780029
45.721313
18.384552
-5.741760
-25.584503
-40.452393
-49.971497
-54.066040
-52.870056
-46.799835
-36.652283
-23.770386
-9.978790
2.608826
12.111115
17.379578
18.343353
15.805786
10.989532
4.972595
-1.599945
-8.487183
-15.476562
-22.099854
-27.647003
-31.365051
-33.025360
-33.160370
-33.029755
-34.328613
-38.601410
-46.781677
-58.838989
-73.605865
-88.823914
-101.585724
-108.983887
-108.831207
-100.257660
-84.106598
-62.588959
-38.822113
-15.962769
3.334229
17.300964
25.171692
27.239868
24.690948
19.471130
13.869476
9.944305
8.966522
11.150726
15.715576
21.343933
26.752991
31.089630
34.092651
35.959808
37.077423
37.792969
38.204132
38.247375
37.741180
36.604767
34.796661
32.442352
29.796417
27.058197
24.319702
21.507843
18.280762
14.028198
8.013428
-0.485321
-11.930878
-26.350067
-43.370270
-62.291626
-82.468536
-103.619934
-125.803070
-149.163849
-173.439423
-197.405396
-218.742798
-234.246399
-240.440948
-234.282043
-214.100830
-180.215790
-135.304962
-84.155975
-32.739319
13.201263
49.516434
74.459351
88.695679
94.403214
94.153320
90.112534
83.644989
75.636246
66.840805
57.974197
49.778259
42.896683
37.812469
34.899017
34.441589
36.482819
40.715607
46.316071
52.106552
56.848701
59.576309
59.745071
57.366615
52.844124
46.757576
39.736832
32.134682
23.820320
14.219521
2.545364
-11.836090
-28.931915
-47.931587
-67.653793
-86.726624
-104.130997
-119.469681
-132.798172
-144.720978
-156.239700
-168.443161
-181.804199
-195.808228
-208.363495
-216.018250
-214.931885
-202.124603
-176.645447
-139.743332
-94.269623
-43.457973
9.544640
61.807693
110.333420
151.995636
184.052261
204.601608
213.130600
210.679764
199.825180
183.625351
164.923828
146.156357
129.334991
116.199432
107.797455
104.186859
104.317352
107.012421
110.301117
111.707336
109.155640
101.986664
91.527802
80.233093
70.494415
63.495667
60.676941
61.471252
63.357361
63.252472
59.425873
52.568512
44.907104
38.769470
35.454224
37.709625
45.910156
56.951019
65.848175
68.761871
65.408356
59.100311
55.531006
61.243073
85.809479
134.346313
203.844727
283.411194
358.768707
417.641663
453.025146
464.502258
432.576538
354.596466
247.821472
140.615921
53.700699
-7.606720
-47.197975
-70.665230
-82.161072
-85.367828
-80.123894
-68.059883
-53.574799
-41.621525
-35.802624
-35.806053
-38.940548
-42.625381
-46.341221
-47.989944
-47.283875
-46.292923
-48.287449
-55.593430
-68.448364
-86.659081
-106.275719
-126.045326
-144.289536
-160.911179
-177.769501
-197.460587
-221.341217
-247.894928
-273.179260
-292.220886
-301.458679
-298.440002
-283.819550
-261.334015
-236.312469
-213.446732
-195.308685
-182.304184
-173.470581
-167.965561
-164.587738
-162.315475
-160.459015
-158.661652
-157.088364
-156.492233
-158.197739
-163.709946
-174.296387
-189.956268
-208.904221
-227.685089
-241.795105
-246.715805
-239.134583
-217.838135
-184.151199
-141.513718
-94.204498
-45.760967
1.977053
49.025890
96.205734
143.681564
189.886246
231.443359
264.161438
284.783173
292.125122
287.658325
274.979004
258.512299
242.144562
228.505096
218.636536
212.535309
209.809174
209.942535
212.377762
216.113144
219.488846
220.604202
217.930496
211.173737
201.450348
191.042145
182.253754
176.400772
173.220688
171.075882
167.841797
161.806519
152.133484
139.022690
123.492584
106.982040
91.001129
76.729858
64.598251
54.231285
44.494125
33.931572
21.508636
7.094963
-8.730606
-24.796848
-40.083530
-54.103893
-66.983887
-79.272476
-91.589325
-104.213425
-116.948792
-129.284866
-140.604492
-150.503021
-159.268005
-167.820267
-177.514389
-189.660980
-204.866241
-222.612595
-240.963943
-256.603149
-265.351013
-263.020233
-246.429474
-214.415894
-168.341293
-111.877762
-50.224548
11.077511
67.294434
115.167633
153.032303
180.566010
198.287384
207.143463
208.266052
202.837585
192.047729
177.401794
160.819656
144.635422
131.235764
122.452187
118.916435
119.914581
123.859833
129.036118
134.330261
139.381088
144.087585
148.018921
149.951904
148.124298
140.790466
127.075447
107.319588
83.009430
56.242493
29.148575
3.492371
-19.516830
-39.360779
-55.997437
-69.598083
-80.345825
-88.192169
-92.996277
-94.748077
-93.745209
-90.606415
-86.044373
-80.499359
-74.134094
-67.369415
-61.194061
-57.474304
-58.537079
-66.394989
-81.909271
-104.516602
-132.629364
-164.427185
-198.549683
-234.024048
-269.807678
-304.064240
-333.764984
-354.919006
-363.415283
-356.147827
-331.880127
-291.896729
-239.868927
-181.188385
-121.976654
-67.766144
-22.547791
11.771881
35.257355
49.546326
57.114166
60.635590
62.536957
64.626343
68.092133
73.467346
80.731079
89.470734
99.065765
108.723785
117.782715
125.926483
133.250031
140.303650
147.796509
156.143219
165.038177
173.538574
180.228607
183.927643
184.203827
181.357224
176.419357
170.664078
165.305038
161.162720
158.432922
156.505905
153.926300
148.756882
139.030441
123.497604
102.038422
75.540771
45.669159
14.270050
-17.055176
-47.032410
-74.633850
-98.938873
-119.064301
-134.419739
-144.898407
-151.034760
-154.004089
-155.419098
-156.703217
-158.620605
-160.959167
-162.638184
-162.506165
-160.144958
-156.423340
-153.399780
-153.511963
-158.386810
-167.798218
-179.445435
-189.203033
-192.156738
-183.840576
-161.428162
-124.440094
-75.287323
-18.876862
38.271088
89.340973
128.711670
153.054871
161.653839
156.265137
140.316467
118.062103
93.661163
70.672852
51.648560
38.024902
30.212555
27.759155
29.650909
34.510651
40.989563
47.996277
54.957031
61.928589
69.415497
77.989990
87.822937
98.462097
108.817719
117.515808
123.370697
125.518219
123.241791
116.074890
103.830872
86.840607
66.143494
43.381409
20.282013
-1.754486
-22.058777
-40.615875
-57.723694
-73.631866
-88.577454
-102.736694
-116.265442
-129.289032
