1426082579.000000
64.000000
0.000000
0.000000
0.000000
0.000000
0.000000
0.000000
0.000000
0.000000
0.000000
0.002232
-0.004517
-0.011266
-0.011384
0.001186
0.025910
0.050634
0.051363
-0.001493
-0.130243
-0.355628
-0.659125
-1.009510
-1.370983
-1.719736
-2.055110
-2.399450
-2.786664
-3.239907
-3.796012
-4.418684
-5.059294
-5.664410
-6.202154
-6.680880
-7.149598
-7.678234
-8.310739
-9.143657
-10.089731
-11.041313
-11.884212
-12.564316
-13.135630
-13.760044
-14.652320
-15.962056
-17.914442
-20.317299
-22.903854
-25.379471
-27.578028
-29.572460
-31.675173
-34.317799
-37.813618
-42.541233
-48.146301
-54.104755
-59.833092
-64.972374
-69.582932
-74.143532
-79.344986
-85.707260
-93.761932
-102.997787
-112.617569
-121.730339
-129.766022
-136.751022
-143.303436
-150.746231
-157.773560
-166.643234
-177.947983
-191.791016
-206.968079
-220.565918
-228.246445
-225.361542
-208.531982
-176.870239
-132.762222
-80.049973
-23.069275
34.943390
92.436951
149.156952
205.227722
260.369629
313.741333
363.873962
409.833527
450.907745
486.502441
515.738647
537.227417
549.219971
549.961304
538.367004
514.205505
478.674011
433.879517
382.451263
327.021057
269.841858
212.633789
156.659393
102.952332
52.373596
5.904694
-35.580414
-71.425842
-101.351837
-125.501129
-144.379700
-158.694031
-169.150711
-176.371094
-180.751389
-182.574188
-182.068634
-179.506607
-175.233246
-169.652863
-163.176910
-156.145676
-148.806808
-141.296860
-133.689835
-126.019623
-118.332680
-110.688637
-103.155724
-95.804550
-88.684166
-81.827438
-75.245941
-68.952599
-62.949085
-57.247494
-51.857185
-46.782822
-42.027760
-37.585209
-33.451748
-29.613855
-26.070963
-22.808779
-19.824995
-17.113392
-14.666497
-12.479320
-10.538469
-8.833674
-7.347853
-6.067689
-4.973423
-4.046258
-3.267375
-2.621137
-2.088365
-1.650751
-1.297691
-1.014702
-0.791059
-0.613321
-0.475162
-0.368465
-0.284617
-0.223973
-0.176477
-0.140555
-0.112515
-0.092625
-0.079772
-0.067835
-0.059293
-0.052184
-0.046861
-0.044132
-0.040358
-0.039164
-0.034331
-0.035156
-0.031817
-0.030751
-0.028105
-0.029291
-0.027454
-0.026081
-0.023852
-0.022989
-0.022173
-0.022157
-0.020828
-0.020277
-0.019405
-0.018741
-0.019019
-0.016856
-0.015671
-0.015853
-0.014883
-0.015121
-0.011419
-0.014938
-0.016890
-0.022362
-0.025036
-0.036725
-0.048423
-0.064851
-0.085159
-0.110020
-0.137787
-0.167267
-0.203047
-0.240149
-0.277267
-0.321532
-0.359642
-0.401686
-0.442615
-0.487222
-0.530631
-0.583485
-0.629423
-0.684496
-0.744789
-0.809454
-0.880802
-0.960199
-1.053603
-1.147299
-1.263692
-1.385871
-1.531126
-1.690737
-1.863475
-2.057672
-2.276464
-2.512223
-2.776300
-3.065372
-3.380598
-3.720653
-4.096376
-4.501388
-4.934720
-5.404696
-5.912014
-6.450962
-7.028809
-7.643172
-8.297091
-8.993450
-9.723307
-10.491954
-11.304029
-12.158506
-13.066897
-14.033347
-15.047056
-16.113298
-17.205528
-18.307018
-19.350019
-20.286135
-21.016207
-21.444122
-21.465714
-20.979368
-19.909491
-18.221672
-15.895117
-12.999876
-9.597656
-5.852604
-1.919422
2.013618
5.762066
9.114777
11.929993
14.077621
15.520515
16.268486
16.395950
16.046230
15.341103
14.399612
13.270504
11.984966
10.573257
9.076794
7.535526
6.012730
4.644257
3.484344
2.515419
1.643036
0.750336
-0.294899
-1.545448
-3.018379
-4.675430
-6.257935
-7.672447
-8.926437
-10.187065
-11.702148
-13.659584
-16.126350
-18.952286
-21.931320
-24.440956
-26.158768
-27.166313
-27.903542
-28.997375
-30.972435
-33.998611
-37.800331
-41.859955
-44.926422
-46.350967
-46.193985
-45.212326
-44.493835
-44.966064
-46.898041
-49.766754
-52.559082
-53.300201
-50.894485
-45.305603
-37.438309
-28.470795
-19.107483
-8.675430
5.517151
21.203232
39.347916
61.245514
88.017639
120.030212
156.053665
192.412735
222.990112
240.448135
238.549835
215.766968
175.405548
124.940521
73.534256
28.749664
-5.457886
-28.955627
-43.898422
-52.881042
-56.809464
-56.014297
-50.805649
-42.409927
-32.897446
-24.578964
-19.097382
-16.980728
-17.728271
-19.759567
-21.743500
-22.896652
-23.023468
-22.285004
-20.816956
-18.397217
-14.428192
-8.272583
0.617355
11.974289
24.751404
37.465652
48.847214
58.458313
67.040176
76.206985
87.667374
102.281265
119.103745
135.179382
146.175217
147.551544
136.179947
111.388107
75.463135
32.922577
-10.722992
-50.580872
-83.436722
-108.139526
-125.132050
-135.661728
-140.959427
-141.914948
-139.042892
-132.796982
-123.815613
-113.060165
-101.569534
-90.309280
-79.864548
-70.526581
-62.313217
-55.269592
-49.513016
-45.254028
-42.629501
-41.370651
-40.690231
-39.355957
-36.004364
-29.587173
-19.747665
-7.001175
7.474930
22.188629
35.818359
47.592758
57.531387
66.412506
75.578384
86.453110
100.087433
116.554749
134.655182
151.823517
164.596664
169.297058
163.059708
144.667816
115.032516
77.032639
34.865936
-7.007523
-44.825745
-76.193436
-100.153320
-116.921661
-127.356506
-132.519669
-133.370071
-130.717056
-125.225632
-117.514343
-108.135620
-97.737869
-87.057480
-76.917694
-68.133530
-61.389328
-57.004730
-54.819443
-54.213135
-54.275589
-53.999420
-52.526245
-49.248718
-43.893646
-36.471588
-27.294800
-16.839706
-5.674667
5.717056
17.051529
28.231995
39.207260
49.931885
60.197327
69.793213
78.597427
86.838409
95.199310
104.726776
116.428635
130.740479
146.923508
162.755310
174.817841
179.301086
173.082214
154.864120
125.558838
88.104401
46.623123
5.340027
-32.299744
-64.053986
-88.838608
-106.484497
-117.406601
-122.343765
-122.267502
-118.257782
-111.393723
-102.693695
-93.089111
-83.388336
-74.367050
-66.659714
-60.751572
-56.800354
-54.707840
-54.037811
-54.165329
-54.345306
-53.832901
-52.079575
-48.707275
-43.608429
-36.767212
-28.209137
-17.967255
-6.227829
6.559372
19.631393
32.030060
42.958466
52.100861
59.774094
66.894821
74.682266
84.331131
96.631882
111.655563
128.481857
145.018356
158.214767
164.569305
161.141800
146.459305
121.103409
87.577286
49.642471
11.202530
-24.387207
-54.880585
-79.075668
-96.622040
-107.763992
-113.100510
-113.579437
-110.295593
-104.362595
-96.826920
-88.484009
-79.975601
-71.655823
-63.781128
-56.583008
-50.291306
-45.188812
-41.519958
-39.315567
-38.226868
-37.553040
-36.286072
-33.417435
-28.193924
-20.341141
-10.139023
1.708435
14.217957
26.437286
37.579315
47.303574
55.741913
63.571045
71.873962
81.848083
94.415802
109.680405
126.564423
142.707611
154.840820
159.500153
154.015518
137.402054
110.687607
76.740051
39.431412
2.619308
-30.673065
-58.598755
-80.364700
-95.856842
-105.289886
-109.086975
-107.926804
-102.811569
-95.039948
-85.955933
-76.718536
-68.040558
-60.186996
-53.069199
-46.637955
-40.958344
-36.365784
-33.275146
-31.977585
-32.205582
-33.128311
-33.345047
-31.347458
-25.976151
-16.901550
-4.678024
9.345673
23.556900
36.561920
47.600586
56.715134
64.671036
72.766724
82.412872
94.654846
109.690353
126.434250
142.392471
154.069107
157.822128
150.945496
132.621002
104.246368
69.164154
31.673859
-4.113373
-35.159119
-59.850700
-77.946640
-90.039635
-97.106682
-100.106079
-99.861229
-96.987000
-92.038231
-85.480408
-77.790199
-69.377022
-60.667564
-52.036942
-43.954170
-36.907890
-31.402931
-27.772736
-25.979828
-25.464516
-25.071838
-23.329391
-18.824097
-10.768608
0.605629
14.158234
28.120193
40.930054
51.717529
60.773308
69.409042
79.436211
92.372208
108.695648
127.310120
145.569336
159.776108
166.122574
161.794754
145.751663
119.118011
84.798080
46.700905
8.712759
-26.057793
-55.543518
-78.867439
-95.914406
-107.261230
-113.781143
-116.554459
-116.535721
-114.420158
-110.561829
-105.060440
-98.008728
-89.627426
-80.429436
-71.085793
-62.296410
-54.676407
-48.616123
-44.309620
-41.564224
-39.841576
-38.167233
-35.394970
-30.394115
-22.468834
-11.554764
1.742100
16.336342
30.967781
44.568832
56.596527
67.223854
77.365181
88.484047
101.969604
118.508179
137.329895
156.019531
170.822998
177.671875
173.339233
156.486694
128.046722
90.958900
49.316978
7.317986
-31.524918
-64.871918
-91.568268
-111.292114
-124.300278
-131.152420
-132.657562
-129.831497
-123.897018
-116.099899
-107.541779
-98.980820
-90.835236
-83.177979
-75.983749
-69.290359
-63.292862
-58.290619
-54.570969
-52.098267
-50.428833
-48.639343
-45.535767
-39.991165
-31.400345
-19.860077
-6.238846
8.194641
22.185883
34.940842
46.373184
57.110367
68.267746
81.145218
96.696121
115.056046
135.073685
154.196823
168.785446
174.986984
169.717056
151.727646
122.004959
83.539795
40.596725
-2.389725
-41.701645
-74.920563
-100.982224
-119.853226
-132.164597
-138.690521
-140.253967
-137.590759
-131.583801
-123.227402
-113.683395
-104.123154
-95.507507
-88.411392
-82.952042
-78.877670
-75.719894
-72.976166
-70.284607
-67.434143
-64.352982
-60.865906
-56.612457
-50.964874
-43.227173
-32.891174
-20.054810
-5.488098
9.491333
23.549698
35.783615
46.058807
54.988251
63.672012
73.340317
85.075378
99.452484
116.237961
134.027359
150.149216
161.013275
162.933243
153.231781
131.139526
98.013885
56.991501
12.081665
-32.736343
-74.122406
-109.690201
-138.001068
-158.537811
-171.640823
-178.324509
-180.108841
-178.638763
-175.449799
-171.709976
-168.240814
-165.498062
-163.580673
-162.422073
-161.948730
-162.103073
-162.873062
-164.193207
-165.895569
-167.806702
-169.650452
-170.684509
-169.432663
-163.329529
-149.144485
-123.900803
-86.392921
-38.086086
16.815022
72.718155
124.623848
169.568665
206.834778
237.174469
261.576904
280.395691
293.302856
299.731140
300.059296
296.285583
291.314331
287.442810
284.902649
281.484863
273.065552
255.594864
226.247971
185.227966
136.014633
84.048149
35.014393
-6.226898
-35.441105
-49.342350
-45.910225
-26.303051
5.458012
43.542450
81.466904
113.361847
135.078781
144.870987
142.447525
128.705627
104.115326
70.295944
31.121494
-8.029545
-42.244102
-68.583260
-86.156204
-96.170441
-92.640121
-72.756134
-41.152802
-7.042595
22.976372
47.491989
66.029144
82.426292
98.862152
115.841812
131.104584
141.344986
144.511337
138.796005
122.822647
95.647049
57.441376
9.472107
-45.527847
-104.300674
-162.112152
-212.673920
-249.893127
-270.409607
-275.031372
-268.130249
-256.001099
-244.478882
-237.937317
-237.793915
-242.518463
-249.026398
-254.352203
-256.603455
-254.715668
-247.891678
-236.477493
-223.062668
-211.858795
-207.094345
-211.651047
-226.126740
-248.454361
-274.226440
-296.036316
-307.985291
-308.444946
-299.513458
-284.418335
-265.766632
-245.068451
-222.820587
-198.831436
-168.543823
-129.659164
-85.172134
-41.305611
-2.887358
28.647556
54.514500
77.170570
99.102409
128.817261
170.459213
219.606201
266.867828
305.131836
332.603729
351.349915
365.048279
377.555084
401.380005
444.846130
506.335114
577.185669
648.973694
715.457764
770.746948
808.828918
768.708618
627.690735
423.133667
221.525391
65.195099
-39.053543
-103.603226
-144.673279
-174.554672
-199.478424
-211.971954
-206.446075
-187.147324
-165.401474
-150.491867
-145.760178
-150.081100
-160.354095
-172.977585
-178.173294
-170.365631
-152.420670
-132.798920
-118.222061
-111.090485
-110.609024
-114.562637
-120.666565
-122.957382
-118.397888
-109.085663
-99.807922
-92.973412
-87.192047
-79.157089
-66.258041
-48.361542
-25.903763
-1.768555
19.482193
33.809738
40.219048
40.463135
37.256813
32.724075
27.977524
24.415108
23.092834
24.555710
28.529846
34.316048
40.768623
46.523491
50.548607
52.454498
52.823753
52.764030
53.592529
56.136978
60.379242
65.317261
69.104576
69.657211
65.202888
55.367844
40.475250
22.584724
3.915756
-13.105812
-26.741859
-36.186718
-41.584381
-43.738811
-43.763451
-42.872723
-41.992569
-41.753170
-42.244400
-43.144226
-43.949493
-44.203072
-43.747879
-42.647026
-41.101318
-39.210941
-37.101536
-34.911442
-32.874474
-31.249508
-29.934555
-28.371656
-25.593952
-20.778723
-13.718929
-5.014500
4.118322
12.402779
19.066618
24.118357
28.072128
31.405926
33.940086
34.667316
32.041130
24.648346
11.816763
-5.933193
-26.810131
-48.024990
-66.416183
-79.184921
-84.711700
-82.984764
-75.581802
-65.283646
-55.229687
-47.996132
-44.832718
-45.580311
-48.856834
-52.837170
-55.884865
-56.924885
-55.660725
-52.454021
-48.121376
-43.588615
-39.624084
-36.630981
-34.512802
-33.683952
-34.000160
-35.198631
-37.109604
-39.702927
-42.701439
-45.399803
-46.325287
-43.616196
-35.562744
-21.337250
-1.730011
20.746735
42.216690
58.376495
65.456787
61.231186
45.564438
20.569809
-9.757050
-40.712280
-68.003510
-88.715500
-101.613693
-106.946930
-105.780594
-99.433136
-89.151947
-75.990173
-61.039581
-45.428101
-30.194855
-16.019348
-3.220703
8.151184
18.091858
26.429779
33.103424
38.195129
42.224548
46.002533
50.353912
55.701538
61.938416
68.604767
75.308075
82.082825
89.511719
98.536499
109.930054
123.843658
139.484650
154.909851
167.336212
173.521942
170.581451
156.777893
132.233368
99.103668
61.225769
23.259430
-10.516937
-37.058105
-55.156067
-65.248169
-68.928711
-68.115234
-64.349976
-58.561035
-51.094177
-42.307251
-32.873413
-24.047729
-17.252563
-13.581177
-13.151123
-14.978516
-17.330383
-18.458679
-17.274780
-13.522827
-7.638428
-0.270325
8.072815
17.152344
26.953369
37.530945
49.003235
61.571350
75.494568
90.737976
106.497559
120.821167
130.601318
132.234009
122.814636
101.359985
69.491699
31.268677
-7.875366
-42.718811
-69.555298
-86.915283
-95.240356
-96.130310
-91.317383
-82.134277
-69.523987
-54.258728
-37.444641
-20.485046
-5.011414
7.626465
16.706360
22.310730
25.224060
26.560120
27.370544
28.379639
29.804688
31.540527
33.389587
35.402283
37.963623
41.798462
47.713379
56.389099
68.088196
82.484375
98.413635
113.767212
125.588684
130.540588
125.745605
109.739990
83.144531
48.802490
11.003845
-25.628662
-57.401611
-82.164246
-99.410583
-109.632446
-113.747498
-112.597839
-106.912903
-97.496277
-85.451111
-72.240112
-59.471375
-48.566284
-40.294189
-34.663086
-31.065002
-28.580261
-26.384521
-23.935852
-21.232666
-18.509827
-16.118225
-14.047028
-11.861938
-8.755585
-3.703003
4.204834
15.463776
29.989258
46.862640
64.270996
79.801697
90.504059
93.452728
86.600494
69.571869
44.031189
13.410492
-18.025604
-46.400909
-68.541840
-82.973328
-89.575775
-88.902252
-81.517822
-67.801636
-48.308502
-24.323578
1.906006
28.480927
53.201599
74.036346
89.755768
100.384705
107.241180
112.456207
117.934113
124.318939
132.152344
139.762939
143.977722
141.679565
131.883484
116.821075
101.655945
92.219330
92.661987
105.958588
130.624878
161.540619
192.189941
217.451569
235.353699
247.562653
257.748901
255.841705
237.475082
204.130798
163.217194
123.626938
91.605804
69.623840
57.802368
54.313950
55.934624
60.999519
66.851685
70.820045
70.916573
67.997009
62.015652
54.170063
45.781391
37.490578
30.570122
24.181015
16.555313
5.676971
-9.556870
-28.821854
-50.136292
-71.337860
-91.513733
-105.071289
-109.846100
-105.997894
-95.793610
-83.145813
-73.055664
-70.201599
-78.121033
-97.991455
-127.516998
-162.895447
-199.647827
-234.465881
-266.256836
-295.837708
-324.166321
-350.866150
-373.512878
-388.326111
-393.021118
-387.851318
-375.839966
-360.945374
-345.639160
-329.029480
-307.178772
-275.310486
-230.879089
-175.958008
-116.849854
-61.981262
-18.612488
9.863403
24.909180
31.574280
35.814697
41.839539
50.354858
59.164490
64.777039
64.692139
58.999329
50.586243
43.753967
42.105896
46.831848
56.096985
65.801819
71.035767
67.780762
53.954712
29.697693
-2.997314
-41.027710
-80.780151
-118.764587
-151.976624
-178.614075
-197.604065
-208.331177
-210.218811
-202.688660
-185.604370
-159.665039
-126.472351
-88.317139
-48.445557
-9.705566
26.255707
59.174042
89.530426
117.458496
142.249146
162.651550
177.653625
185.747559
186.380280
180.349609
169.632629
156.639587
142.996704
129.015747
114.066864
97.252441
75.767456
46.572174
7.239197
-42.883911
-101.992310
-166.125153
-229.783569
-287.094238
-321.327087
-320.206177
-281.036591
-213.946075
-136.765045
-65.332855
-7.448669
36.603409
70.115356
96.424133
115.718811
127.057892
130.404419
127.803146
122.766541
118.426025
116.277176
116.255829
117.500015
118.019287
116.408829
112.463531
107.243851
102.333527
98.703857
96.391830
94.756989
93.309738
91.280029
88.369034
84.875900
81.919312
81.025406
83.216003
87.911957
92.436981
92.511497
83.423645
62.625420
31.461075
-4.571022
-37.948608
-62.483055
-75.888916
-80.257095
-79.999695
-79.064438
-78.719269
-77.687828
-73.936157
-67.002045
-58.973953
-53.289803
-52.403336
-55.845612
-60.152657
-60.660721
-53.852760
-39.254128
-19.676682
0.396690
16.737320
26.950920
31.004623
30.512924
28.390602
27.623322
30.794518
39.176239
51.562645
63.897690
69.960266
63.554413
41.538162
5.783596
-36.667629
-75.529015
-101.012863
-107.240715
-93.871170
-65.749123
-30.944725
1.851852
25.590168
36.427040
34.571194
23.754593
9.807343
-1.581448
-6.988537
-6.109962
-1.155666
5.063940
10.587040
14.964685
18.608963
21.611940
23.110424
21.580635
16.097193
7.529041
-1.445818
-7.591910
-8.628647
-4.661336
2.167215
8.668660
12.175290
11.855970
8.914976
5.939783
5.503273
9.191444
17.041473
27.723061
38.862957
47.624626
51.298897
47.884117
36.738312
18.898802
-2.852839
-24.936754
-43.647514
-56.217834
-61.331421
-59.027016
-50.285934
-36.530781
-19.405170
-0.674549
17.207712
31.861889
41.410370
45.192635
44.128067
40.440834
36.945942
36.254044
40.419884
49.644146
62.371109
75.254547
83.714401
83.326950
71.620567
49.516991
20.375988
-8.019009
-29.431240
-40.785904
-42.797283
-38.916744
-33.217159
-28.486336
-25.515602
-23.702972
-22.139523
-20.869316
-20.388153
-21.112049
-22.819710
-24.718578
-25.981007
-26.193886
-25.620049
-24.920986
-25.022289
-26.221371
-28.208115
-30.170731
-31.335133
-31.294796
-30.318287
-29.178593
-28.916866
-30.782906
-35.451145
-42.349163
-49.300911
-52.704136
-48.964443
-36.070431
-15.076416
9.977577
33.386459
50.200768
58.208374
58.549385
54.606270
50.052460
46.976479
45.222206
43.022461
38.315285
29.867348
17.908096
3.818184
-10.343307
-22.403008
-30.450691
-33.323105
-30.781418
-23.680176
-13.666672
-2.850876
6.872147
14.125633
18.363335
19.700470
18.710938
16.120338
12.751190
9.358978
6.722549
5.312332
5.258789
6.188171
7.444847
8.336044
8.552498
8.270241
8.037025
8.493889
10.017204
12.620003
15.958359
19.486320
22.664650
25.122307
26.762352
27.564362
27.534065
26.480728
24.020676
19.659599
13.247147
5.206993
-3.144012
-10.050804
-13.780792
-13.343857
-8.690437
-0.744987
9.063889
19.373688
29.239799
38.255127
46.425453
53.783424
60.307037
65.849976
70.055450
72.492508
72.828079
70.844086
66.577583
60.266449
52.622856
43.791054
34.125328
24.012070
13.880310
4.123001
-4.996468
-13.418144
-21.125454
-28.048538
-33.911999
-38.149826
-40.121231
-39.508408
-36.676395
-32.768780
-29.506496
-28.775845
-31.972675
-39.580891
-50.710236
-63.343948
-74.748436
-82.215645
-83.966316
-79.565094
-70.032135
-57.354836
-43.669060
-30.664654
-19.276451
-9.794558
-2.175066
3.775789
8.215502
11.260405
13.024168
13.591711
13.051423
11.473803
9.129082
6.543843
4.415523
3.402525
3.886959
5.868733
9.046265
12.909996
16.879673
20.488304
23.465137
25.855938
28.103512
30.973274
35.154350
40.777065
46.839207
51.098221
50.676857
43.051888
27.014351
3.322176
-25.510277
-56.015892
-83.987457
-105.636536
-118.739769
-122.960159
-119.657753
-111.082413
-99.564064
-86.842453
-73.885468
-60.978043
-48.287121
-36.108971
-24.909422
-15.178468
-7.276117
-1.321192
2.805727
5.441865
7.139252
8.533451
10.237670
12.788359
16.501728
21.339411
27.076097
33.342865
39.885208
46.701550
54.038906
62.283531
71.770813
82.332634
92.924889
101.386116
104.708618
99.859283
84.865997
59.736259
26.790115
-9.874332
-45.457493
-75.749809
-98.051910
-111.448082
-116.583702
-115.017471
-108.646301
-99.209839
-88.037262
-76.095917
-64.047333
-52.474472
-41.995705
-33.233818
-26.713600
-22.677925
-20.959503
-20.945343
-21.670341
-22.027290
-20.950180
-17.731407
-12.207397
-4.816841
3.602150
12.027046
19.717575
26.439850
32.567268
38.956993
46.677803
56.578819
68.921562
82.905281
96.452484
106.370758
109.047638
101.520264
82.616577
53.655014
18.269257
-18.552597
-51.836044
-77.936752
-95.093460
-103.358856
-103.967285
-98.646515
-89.109512
-76.960648
-63.723969
-50.864182
-39.722198
-31.195953
-25.606277
-22.600510
-21.300354
-20.753220
-20.211594
-19.446671
-18.583649
-17.840271
-17.122437
-15.803253
-12.928864
-7.650848
0.281036
10.309555
21.201660
31.637360
40.732742
48.315811
54.996735
61.772247
69.758453
79.796936
92.119415
105.979095
119.490173
129.594513
132.807434
126.227570
108.659027
81.328888
47.690765
12.477875
-19.687958
-45.447540
-63.263153
-73.213043
-76.384399
-74.225952
-68.035126
-58.981567
-48.243042
-37.155365
-27.058319
-19.098938
-13.840637
-11.108673
-10.206543
-10.233795
-10.486511
-10.685883
-10.792206
-10.754700
-10.279541
-8.744843
-5.440399
0.101074
7.892273
17.347717
27.469727
37.160431
45.510620
52.165466
57.478485
62.531372
68.748901
77.373291
88.681030
101.530212
113.302063
120.423767
119.313202
107.576660
84.873444
53.206848
16.618530
-20.036133
-52.280914
-77.130066
-93.580017
-102.304321
-104.949249
-103.271545
-98.666809
-91.976013
-83.803833
-74.730865
-65.494446
-56.909027
-49.618805
-43.962463
-39.853973
-36.958405
-34.818604
-33.033966
-31.375305
-29.765503
-28.194550
-26.498474
-24.234222
-20.692352
-15.164978
-7.233948
2.842133
14.184753
25.499878
35.545868
43.599976
49.689941
54.588226
59.558228
66.089142
75.408508
88.059143
103.412872
119.451538
132.860626
139.690796
136.502930
121.418640
94.964996
60.071594
21.397949
-15.967194
-47.731232
-71.374023
-86.318268
-93.507477
-94.735229
-91.809967
-86.133850
-78.685822
-70.193420
-61.353363
-52.921661
-45.647919
-40.022247
-36.131165
-33.684753
-32.123138
-30.876617
-29.552307
-28.004913
-26.338257
-24.729248
-23.220184
-21.575134
-19.169434
-15.171509
-8.956146
-0.438934
9.718323
20.181976
29.544128
36.899872
42.218079
46.391449
50.932648
57.386597
66.980072
80.114838
96.098907
112.971893
127.588562
136.083771
134.843933
121.719788
96.800995
62.772827
24.265076
-13.458405
-45.871643
-70.196869
-85.750763
-93.407593
-94.804138
-91.614838
-85.149811
-76.366394
-66.214722
-55.769165
-46.300018
-38.916199
-34.150299
-31.808380
-31.064911
-30.897614
-30.546692
-29.822998
-29.013550
-28.542847
-28.624969
-28.947510
-28.714478
-26.861420
-22.419281
-14.905518
-4.505707
7.840942
20.671326
32.459808
42.134216
49.436127
55.079163
60.535583
67.530029
77.484589
90.988464
107.362030
124.452637
138.871613
146.624725
144.215881
129.707062
103.519440
68.526001
29.301910
-9.078857
-42.374939
-67.912750
-84.807281
-93.567780
-95.465881
-92.028748
-84.785034
-75.192963
-64.658234
-54.460052
-45.623657
-38.692596
-33.656860
-29.946411
-26.794250
-23.608276
-20.283600
-17.232788
-15.121918
-14.323547
-14.619720
-15.072998
-14.278748
-10.936005
-4.420044
5.053619
16.414062
28.179352
38.954407
47.905090
54.983917
61.005676
67.411163
75.809204
87.384491
102.303650
119.233826
135.385010
146.907166
149.887726
141.453918
120.811432
89.615753
51.708496
11.991028
-24.784363
-55.221527
-77.680542
-92.118958
-99.492401
-101.098816
-98.183105
-91.870605
-83.320038
-73.791931
-64.535400
-56.549988
-50.382263
-45.949982
-42.734436
-40.013855
-37.185516
-33.980652
-30.501495
-27.119202
-24.069916
-21.211975
-17.843048
-12.893250
-5.412140
4.907318
17.378082
30.485382
42.533844
52.307175
59.609619
65.302536
70.996231
78.448059
89.055374
103.273071
120.270172
137.735504
152.075226
159.147324
155.406525
139.082001
110.942841
74.169205
33.478088
-6.172470
-40.920624
-68.526657
-88.420898
-101.144150
-107.718948
-109.274384
-106.799225
-101.229019
-93.581024
-84.910141
-76.272141
-68.488617
-61.969322
-56.756149
-52.617355
-49.277985
-46.654167
-44.877930
-44.029976
-43.950325
-43.950241
-42.880791
-39.380920
-32.379333
-21.530243
-7.419098
8.476646
24.320423
38.496113
50.175655
59.626427
68.171570
77.699539
90.042450
106.229836
125.758514
146.344864
164.114105
174.402725
173.147873
158.122025
129.872055
91.696838
48.738678
6.484360
-30.680637
-60.311977
-81.947289
-96.446991
-105.180855
-109.439110
-110.083328
-107.748718
-103.061462
-96.713394
-89.552643
-82.298691
-75.422554
-69.062248
-63.063194
-57.307236
-51.929504
-47.390991
-44.270981
-42.883179
-42.846802
-42.928604
-41.343994
-36.402679
-27.210251
-14.092911
1.463882
17.440750
32.011063
44.166428
54.017639
62.670975
71.807739
83.272659
98.332489
117.093475
137.953842
157.522491
171.199936
174.337479
163.719376
138.748810
101.844727
57.885498
12.814697
-27.972046
-60.914276
-84.769104
-100.301086
-109.352966
-113.842834
-115.096130
-113.638611
-109.630585
-103.235931
-95.016296
-86.017883
-77.375397
-70.014526
-64.345886
-60.269684
-57.373901
-55.207214
-53.474670
-52.047394
-50.859558
-49.665863
-47.875000
-44.560516
-38.726196
-29.684540
-17.483063
-3.062408
11.932404
25.690491
36.833618
44.877991
50.486786
55.187195
61.032776
70.035767
83.588196
101.886597
123.445312
145.083466
162.225525
169.921204
164.198547
143.280273
108.356964
63.326691
13.904327
-33.949890
-75.391174
-107.609680
-129.967712
-143.470032
-149.971619
-151.453735
-149.564087
-145.511597
-140.164062
-134.150146
-127.947754
-121.924927
-116.282288
-111.180054
-106.734619
-103.140686
-100.629211
-99.398804
-99.490417
-100.648193
-102.317810
-103.713623
-104.036804
-102.688293
-99.422180
-94.396790
-88.122742
-81.254639
-74.377563
-67.897156
-61.940674
-56.415405
-51.100342
-45.748505
-40.168945
-34.283905
-28.073273
-21.479034
-14.461334
-7.003815
0.827789
8.814880
16.724243
24.349335
31.744293
39.211121
47.234283
56.269531
66.457214
77.508179
88.767395
99.408569
108.788513
116.769440
123.924194
131.403595
140.709717
153.196991
169.361389
188.268005
207.243134
222.008942
227.598145
219.556641
195.506989
156.143494
105.372498
49.475922
-4.627716
-51.096710
-86.446198
-109.838837
-122.482849
-126.715759
-125.010742
-119.479797
-111.764801
-103.109039
-94.461700
-86.515289
-79.619720
-73.901001
-69.255768
-65.577271
-62.849304
-61.154480
-60.514862
-60.812897
-61.663055
-62.389526
-62.241486
-60.491486
-56.662659
-50.660553
-42.755493
-33.411926
-23.139252
-12.268280
-0.979340
10.624542
22.338257
33.737183
44.250885
53.418091
61.201050
68.175568
75.531372
84.824768
97.420410
113.783905
132.817413
151.653778
165.959961
170.988190
163.042236
140.798553
105.951233
62.876740
17.427795
-24.715363
-59.355011
-84.431122
-99.838135
-106.847107
-107.273499
-102.966217
-95.547485
-86.416687
-76.764923
-67.565552
-59.498871
-52.832581
-47.444672
-42.929688
-38.877777
-35.210388
-32.226166
-30.443359
-30.156006
-30.986450
-31.713196
-30.542542
-25.813202
-16.724487
-3.725220
11.575623
27.040497
40.819977
52.031158
61.007660
69.148499
78.350433
90.346039
105.997467
124.685944
144.011932
160.057892
168.162811
164.250916
146.193665
114.676117
73.204895
27.144348
-17.692169
-56.519073
-86.459961
-106.692993
-118.010071
-122.093842
-120.870880
-116.082581
-109.166199
-101.200562
-92.963654
-84.922546
-77.249176
-69.927673
-62.775055
-55.696442
-48.856506
-42.671173
-37.833282
-34.930542
-34.054108
-34.576721
-35.031036
-33.532440
-28.436432
-18.974426
-5.667725
9.840851
25.371887
39.053680
50.016449
58.683289
66.591583
75.790161
88.158081
104.552032
124.322845
144.971497
162.481262
172.081757
169.535797
152.546478
121.627197
80.250061
33.982117
-11.129120
-50.004242
-79.689697
-99.516937
-110.591980
-114.893250
-114.447052
-110.849701
-105.238495
-98.440369
-91.122620
-83.862244
-77.049927
-70.753967
-64.753387
-58.743225
-52.644897
-46.720032
-41.575378
-37.795685
-35.523224
-34.115112
-32.197571
-28.107849
-20.603119
-9.361786
4.733063
19.894348
34.163635
46.100555
55.328979
62.737305
70.094269
79.492615
92.529419
109.655090
129.593903
149.284241
164.400299
170.312683
163.405365
142.356140
108.707153
66.669739
21.901459
-19.962006
-54.687683
-80.133850
-96.198822
-104.115936
-105.668304
-102.575531
-96.323456
-88.160278
-79.209076
-70.461456
-62.644135
-55.949066
-50.094177
-44.527283
-38.821533
-32.961212
-27.452728
-23.071320
-20.375610
-19.257141
-18.739960
-17.239502
-13.108398
-5.416321
5.719971
19.060852
32.664185
44.709412
54.173462
61.260529
67.364319
74.640137
85.213104
100.316650
119.543579
140.517487
159.051819
170.045258
168.857178
152.773285
122.141296
80.424835
33.377747
-12.657257
-52.477661
-83.186768
-104.402649
-117.547333
-124.718140
-127.699432
-127.566223
-124.809540
-119.740143
-112.943207
-105.292206
-97.785095
-91.221375
-85.941132
-81.826355
-78.445404
-75.238495
-71.781830
-67.864197
-63.527924
-58.966644
-54.284088
-49.322998
-43.537689
-36.158630
-26.483063
-14.312225
-0.230682
14.533813
28.462524
40.419647
50.121063
58.263367
66.273163
75.818542
88.358826
104.735229
124.837677
147.237396
168.964447
185.758331
192.746918
185.864075
163.310730
126.473450
79.832153
29.712830
-17.514221
-57.190491
-87.219604
-107.870544
-120.876343
-128.290009
-131.792572
-132.401062
-130.640350
-126.939575
-121.752777
-115.651031
-109.146362
-102.590942
-96.146576
-89.940735
-84.185669
-79.309998
-75.845612
-74.167358
-74.187256
-75.163696
-75.782990
-74.583313
-70.415283
-62.886230
-52.558228
-40.682770
-28.771057
-17.983093
-8.655762
-0.297668
8.209259
18.009247
29.690948
43.001831
56.878876
69.962372
81.158508
90.227142
97.958405
105.973389
116.203339
130.249329
148.645172
170.306366
192.229675
209.749817
217.475861
210.781342
187.448242
148.715485
99.231323
45.822418
-4.452057
-46.213867
-76.803741
-96.331909
-106.727997
-110.488190
-109.777283
-106.000885
-99.935638
-92.129425
-83.270416
-74.227539
-65.954010
-59.180359
-54.177551
-50.680786
-48.095520
-45.799255
-43.458618
-41.152740
-39.188507
-37.772278
-36.689545
-35.171509
-32.150543
-26.667480
-18.253479
-7.274506
5.228668
17.870819
29.365356
38.984039
46.692108
53.175110
59.669708
67.696747
78.688660
93.614014
112.433319
133.701660
154.347656
170.051361
176.145630
168.941101
147.028229
111.983459
68.059052
21.071899
-23.182861
-60.423370
-88.546875
-107.593231
-118.997742
-124.712250
-126.500397
-125.577393
-122.696991
-118.373352
-113.019745
-107.087524
-100.983704
-95.030121
-89.470306
-84.497284
-80.346436
-77.212128
-75.141876
-73.824554
-72.556244
-70.336945
-66.262665
-59.797058
-51.023407
-40.605865
-29.454163
-18.346313
-7.628265
2.804108
13.344757
24.326874
35.817871
47.508545
58.849670
69.320435
78.699066
87.355713
96.258087
106.863525
120.651825
138.376129
159.420166
181.229095
199.434021
208.749756
204.423462
183.891998
147.890686
100.515137
48.146118
-2.388641
-45.610718
-78.545990
-100.888458
-114.215820
-120.944183
-123.357330
-123.129578
-121.295441
-118.401398
-114.741333
-110.388306
-105.329590
-99.515411
-93.070221
-86.380005
-80.113983
-75.022156
-71.595581
-69.814667
-69.114929
-68.460052
-66.729553
-62.994202
-56.857239
-48.505859
-38.590820
-27.956238
-17.330109
-6.989899
3.195221
13.592560
24.450500
35.637207
46.581604
56.536163
65.081146
72.441956
79.671356
88.375854
100.306610
116.635559
137.263885
160.342834
182.127808
197.523071
201.260590
189.580048
161.579712
119.865173
70.015656
19.043488
-26.623779
-62.711182
-87.730896
-102.651245
-109.837921
-111.912415
-110.923920
-108.046692
-103.829254
-98.516052
-92.439209
-86.088165
-80.084290
-74.893097
-70.684967
-67.309448
-64.465942
-61.951660
-59.758606
-58.037231
-56.805176
-55.705383
-53.939636
-50.518646
-44.619629
-35.882477
-24.571808
-11.458435
2.444183
16.123505
28.757172
39.859375
49.383820
57.737457
65.829773
74.957672
86.577881
101.829895
120.866394
142.330902
163.116455
178.758636
184.460968
176.558594
153.823792
118.058014
73.745911
26.732056
-17.371460
-54.499207
-82.684021
-101.796448
-112.849213
-117.307831
-116.543823
-111.736694
-103.940094
-94.240173
-83.786224
-73.736725
-65.063751
-58.273132
-53.261780
-49.429810
-45.964371
-42.325928
-38.491592
-34.971100
-32.378326
-30.877151
-29.802811
-27.711517
-22.939056
-14.345795
-1.959778
12.912811
28.175537
41.791824
52.567734
60.629684
67.277359
74.498917
84.292816
98.009171
115.878647
136.569870
157.114090
173.196686
180.006210
173.595901
152.252213
117.385025
73.270966
25.912094
-18.740341
-56.315247
-84.721298
-103.916245
-115.020569
-119.529755
-118.780655
-113.946091
-106.162949
-96.603073
-86.401443
-76.458252
-67.321396
-59.200836
-52.092865
-45.867554
-40.480240
-36.010941
-32.641525
-30.522263
-29.556549
-29.146194
-28.113708
-24.941147
-18.255630
-7.437363
6.984360
23.369858
39.555161
53.691803
64.951141
73.875473
82.157867
92.076004
105.596329
123.528503
144.915985
166.754669
184.435547
192.759949
187.434479
166.501892
131.198059
85.778809
36.336060
-10.882507
-51.121246
-81.937286
-103.182922
-116.203766
-122.883606
-124.877502
-123.348816
-119.132965
-112.970978
-105.665985
-98.063354
-90.821289
-84.232971
-78.194183
-72.403687
-66.682251
-61.175476
-56.344940
-52.754333
-50.558075
-49.262512
-47.625122
-44.072693
-37.282349
-26.730957
-13.021576
2.348206
17.562164
31.148651
42.528778
52.191162
61.491211
72.241394
86.099792
103.973755
125.446442
148.375732
168.914886
182.173340
183.412476
169.492126
140.103302
98.151062
49.071625
-0.674286
-45.278381
-80.836182
-105.783997
-120.468262
-126.387939
-125.515442
-120.001740
-112.082031
-104.086426
-98.151672
-95.733887
-97.118683
-101.279022
-106.251343
-109.812836
-110.321930
-107.157196
-100.798309
-92.403137
-83.257568
-74.321228
-65.881653
-57.655640
-48.873077
-38.664337
-26.350555
-11.759308
4.653137
21.837341
38.469543
53.393280
66.044189
76.722565
86.558228
97.208984
110.405060
127.344574
148.097931
171.002014
192.622711
208.060364
212.168701
201.024109
173.491882
131.883118
81.456696
28.997742
-19.155762
-58.608978
-87.626190
-106.631714
-117.341553
-121.738693
-121.513138
-117.951416
-112.128830
-105.063568
-97.743759
-90.936523
-85.042282
-80.081406
-75.716446
-71.509750
-67.159210
-62.649414
-58.302521
-54.604385
-51.976868
-50.482193
-49.583832
-48.164871
-44.787369
-38.233688
-27.929504
-14.288147
1.387375
17.374466
32.078979
44.651321
55.229675
64.900452
75.325592
88.296265
105.130280
126.146927
150.146927
174.215073
193.884018
204.010681
200.052460
179.650864
143.642273
96.188034
43.659851
-7.102493
-50.715942
-84.259872
-107.425919
-121.644485
-128.886032
-130.874344
-128.765320
-123.411957
-115.690109
-106.711868
-97.745422
-89.803070
-83.404404
-78.419128
-74.220428
-70.046860
-65.379074
-60.103409
-54.588989
-49.375366
-44.845673
-40.907837
-36.940308
-32.000061
-25.163940
-15.969864
-4.598557
8.188507
21.270691
33.555435
44.319717
53.524033
61.829407
70.553787
81.331909
95.623962
114.031342
135.700516
157.998825
176.736969
186.994873
184.371384
166.372681
133.360779
88.704147
38.037323
-12.213409
-56.374634
-90.771103
-114.089569
-127.043587
-131.449860
-129.441284
-122.847702
-113.111504
-101.458755
-89.111244
-77.288521
-66.989319
-58.750938
-52.456573
-47.513229
-43.204056
-39.094360
-35.252167
-32.108559
-30.145386
-29.382156
-29.171394
-28.221100
-25.062317
-18.594223
-8.555130
4.308510
18.491486
32.285049
44.411354
54.461487
63.014481
71.522461
81.852386
95.706551
113.859879
135.609711
158.330261
177.742020
188.675842
186.626434
169.119995
136.749817
93.157555
44.094322
-4.229988
-46.651997
-79.991646
-103.143402
-116.643646
-121.832054
-120.367950
-113.865906
-103.981720
-92.355652
-80.533020
-69.755905
-60.756054
-53.560452
-47.721233
-42.623520
-37.816544
-33.265274
-29.351742
-26.569248
-25.127857
-24.596581
-23.884937
-21.449768
-15.864380
-6.348602
6.776955
22.148773
37.759949
51.727749
62.989273
71.814476
79.747711
89.078857
101.949966
119.407776
140.602264
162.577057
180.628418
189.462830
184.643372
163.988098
128.409042
81.867096
30.264412
-20.077026
-63.969757
-98.302734
-122.201332
-136.484299
-142.800217
-142.979279
-138.630035
-131.033386
-121.342537
-110.616013
-99.883987
-90.025543
-81.645157
-74.883118
-69.465958
-64.847275
-60.531113
-56.303391
-52.364445
-49.113037
-46.778408
-45.006184
-42.761620
-38.560532
-31.085037
-19.752663
-5.108940
11.305622
27.501022
41.883255
53.759808
63.588390
72.728539
83.012146
96.147568
113.238602
134.262146
157.676666
180.228882
197.274811
203.684570
195.323975
170.447586
130.586960
80.364113
26.278763
-25.046249
-68.497025
-101.338821
-123.246964
-135.584732
-140.520203
-140.172440
-136.239014
-129.901398
-121.969826
-113.105820
-103.941963
-95.088982
-86.992142
-79.913635
-73.822784
-68.506104
-63.686249
-59.202927
-55.053715
-51.302601
-47.984276
-44.896118
-41.554398
-37.238678
-31.200415
-22.921474
-12.329588
0.076195
13.364008
26.420258
38.306980
48.581230
57.480385
65.890350
75.118683
86.655022
101.608879
120.333916
141.834106
163.474609
181.086273
189.745422
185.077148
164.722763
129.416367
83.005943
31.580954
-18.264845
-61.098061
-93.776489
-115.633125
-127.826180
-132.369720
-131.229996
-125.956955
-117.743134
-107.612740
-96.685799
-86.102333
-76.829750
-69.457497
-64.083527
-60.361866
-57.688454
-55.370914
-52.863464
-49.870071
-46.403309
-42.722168
-39.076702
-35.533485
-31.701149
-26.775604
-19.793091
-10.078667
2.366165
16.798775
31.886440
46.196808
58.639435
68.848122
77.228081
84.881432
93.330101
104.063393
118.090919
135.254364
153.883850
170.733398
181.442627
181.567749
167.980682
139.942810
99.705078
51.999146
2.862411
-41.932533
-78.250351
-104.160019
-119.737556
-126.321495
-125.754440
-119.877861
-110.333885
-98.664795
-86.342384
-74.648033
-64.486115
-56.261635
-49.902802
-45.075699
-41.449799
-38.859695
-37.377075
-37.195625
-38.315102
-40.370590
-42.394272
-42.957169
-40.595413
-34.313171
-24.033142
-10.690262
4.133568
18.830612
32.462082
45.044235
57.493454
71.198395
87.463303
106.853119
128.769989
151.155838
170.668686
183.181717
184.803635
173.032257
147.732849
111.383484
68.623199
24.957748
-14.631027
-46.818466
-70.267807
-85.329376
-93.221115
-95.257797
-92.446899
-85.516449
-75.176132
-62.496979
-49.022186
-36.496429
-26.450439
-19.692474
-16.092667
-14.827484
-14.861710
-15.394226
-16.124924
-17.068558
-18.235992
-19.318161
-19.608109
-18.221756
-14.440948
-8.056763
0.607590
10.746941
21.444443
31.955223
41.995720
51.847992
62.359642
74.716919
90.073425
109.028275
130.855194
153.214111
172.144897
182.759857
180.564240
162.988922
130.427856
86.416191
36.733368
-12.339516
-55.699966
-90.423065
-115.800964
-132.586838
-142.039566
-145.384079
-143.656189
-137.955505
-129.532410
-119.643608
-109.216637
-98.744225
-88.247223
-77.608894
-66.996315
-56.989265
-48.456841
-42.322094
-39.052074
-38.435223
-39.479225
-40.486950
-39.556129
-35.090294
-26.402405
-13.967800
0.611851
15.258621
28.231976
38.724552
47.214043
55.244255
64.887405
78.121902
96.058151
118.226868
142.203110
163.689056
177.300201
178.059311
163.034973
132.459991
89.927505
41.291515
-6.969978
-49.403671
-82.657654
-105.631569
-118.933441
-124.184097
-123.346649
-118.355118
-110.924263
-102.436775
-93.827736
-85.593826
-77.825073
-70.335907
-62.942276
-55.633118
-48.627884
-42.445789
-37.663147
-34.673565
-33.326279
-32.791916
-31.630245
-28.201189
-21.236593
-10.279705
4.048897
20.252419
36.401775
50.800331
62.600456
72.120811
80.773499
90.572289
103.411903
120.133720
139.827408
159.635574
175.145187
181.460373
174.680984
153.190048
118.340973
74.168015
26.318539
-19.426460
-58.518421
-88.356056
-108.203377
-118.722694
-121.269081
-117.466743
-108.982597
-97.564476
-84.976875
-72.720078
-61.755859
-52.397369
-44.426907
-37.446465
-31.280415
-26.081974
-22.269518
-20.162668
-19.621962
-19.894484
-19.681047
-17.507517
-12.206545
-3.317318
8.660049
22.446117
36.382450
49.104061
60.026123
69.649399
79.345535
90.968254
106.028839
125.012665
146.786789
168.400635
185.520752
193.319092
187.955444
167.848495
134.452881
91.872375
45.747810
1.642906
-36.319954
-66.009285
-87.144928
-100.561432
-107.539719
-109.344139
-107.027908
-101.547440
-93.808563
-84.770599
-75.385025
-66.428284
-58.560120
-52.224533
-47.707748
-45.257736
-44.949860
-46.558868
-49.236298
-51.346161
-50.883163
-46.099197
-36.374908
-22.579834
-6.829086
8.370728
21.279999
31.458664
39.948166
48.614410
59.538116
74.337845
93.659332
116.680298
140.836182
161.874634
174.495911
173.731750
156.682587
123.706665
78.657990
27.781311
-22.065277
-65.256104
-98.557434
-121.405609
-135.205078
-142.369110
-145.271759
-145.589142
-144.091339
-140.927246
-136.008209
-129.449860
-121.783661
-113.726746
-105.930023
-98.679352
-91.908417
-85.381104
-78.959839
-72.842560
-67.380676
-62.916412
-59.330658
-56.020355
-51.955597
-45.941833
-37.118500
-25.289093
-11.104340
4.114075
18.821075
31.742767
42.403046
51.156250
59.098145
67.655426
78.324402
92.364075
110.307770
131.555267
153.847015
173.224365
184.639771
183.405975
166.759979
135.023438
91.718536
42.483765
-6.562164
-50.431396
-86.061371
-112.457855
-130.084290
-140.208679
-144.409027
-144.210571
-140.988892
-135.827667
-129.530640
-122.583557
-115.282806
-107.820892
-100.401672
-93.339569
-87.041443
-81.966400
-78.431458
-76.496613
-75.729340
-75.221771
-73.861481
-70.657379
-65.088989
-57.236908
-47.646942
-36.949646
-25.614960
-13.748993
-1.229156
12.048920
25.918488
39.826996
53.062958
64.973083
75.340607
84.648071
93.976471
104.805664
118.501007
135.765869
155.986694
176.905823
194.655640
204.378448
201.492828
183.179443
149.570099
104.133743
52.842514
2.392105
-41.633850
-76.076630
-100.305542
-115.503174
-123.459030
-125.731125
-123.387054
-117.250488
-108.290176
-97.732544
-86.951294
-77.155991
-69.159210
-63.259308
-59.422348
-57.303375
-56.385574
-56.114059
-55.897369
-55.327148
-54.140198
-52.082733
-48.870148
-44.104950
-37.402786
-28.584854
-17.872345
-5.871780
6.543839
18.439407
29.154282
38.387024
46.341965
53.726242
61.642548
71.365311
84.018982
100.182663
119.524948
140.427246
159.948380
174.115677
178.741394
170.501282
148.068481
112.856934
68.774330
21.356598
-23.735710
-62.077324
-91.265846
-110.850510
-121.720055
-125.224701
-122.694366
-115.332161
-104.400253
-91.403282
-78.100304
-66.219391
-57.046661
-51.109169
-48.092728
-46.962387
-46.422497
-45.382050
-43.367821
-40.542156
-37.418823
-34.410149
-31.365116
-27.502197
-21.744293
-13.249729
-1.932545
11.347042
25.119354
37.809067
48.390545
56.691048
63.470436
70.136276
78.351440
89.587219
104.642380
123.254166
143.771805
163.113159
177.149567
181.560608
173.030701
150.346848
114.994766
70.987640
23.833630
-20.897453
-58.867329
-87.675323
-106.861923
-117.352478
-120.620567
-118.234344
-111.589218
-101.938004
-90.573326
-78.731392
-67.525421
-57.730618
-49.620941
-43.056377
-37.680573
-33.220062
-29.658619
-27.319559
-26.548885
-27.360886
-29.000351
-29.913193
-28.099960
-21.950607
-10.956745
3.981922
20.769928
36.941422
50.661587
61.241375
69.346512
76.593674
85.053543
96.609177
112.438110
132.361511
154.418411
174.859375
188.692749
190.983887
178.445557
150.541122
109.937416
61.715691
12.033581
-33.344406
-70.241257
-96.623497
-112.467552
-119.211113
-119.071106
-114.327698
-106.816010
-97.828613
-88.101166
-78.086258
-68.130714
-58.435722
-49.126190
-40.341831
-32.341385
-25.578922
-20.671791
-18.085773
-17.658289
-18.469770
-18.885040
-17.114172
-11.810520
-2.463640
10.434423
25.510580
41.030476
55.399883
67.736481
78.270432
88.360725
100.009651
115.021271
133.854324
154.844223
174.183136
186.637878
187.160629
172.530121
142.546448
100.199165
50.814327
0.593927
-44.997322
-82.240387
-109.514023
-126.908981
-135.559784
-137.016235
-132.912903
-124.886650
-114.578934
-103.527863
-92.958740
-83.561020
-75.483810
-68.443718
-62.060776
-56.144775
-50.770664
-46.257011
-42.946327
-40.924755
-39.804001
-38.605618
-35.922665
-30.343231
-20.990597
-7.927277
7.709747
24.113480
39.434143
52.571594
63.561356
73.664192
84.920982
99.343933
118.017357
140.293549
163.389862
182.672516
192.692902
188.765625
168.567917
133.163727
86.774513
35.661491
-13.719292
-56.334831
-89.437035
-112.514801
-126.563667
-133.182068
-133.925110
-130.106155
-122.874527
-113.424255
-103.010162
-92.858856
-83.837357
-76.366501
-70.361038
-65.350906
-60.919891
-56.854965
-53.265045
-50.433548
-48.459106
-46.958435
-44.949326
-41.167542
-34.378464
-24.022476
-10.435150
5.181320
21.008514
35.356842
47.180954
56.542099
64.747879
73.931244
86.333496
103.436935
125.245438
149.798309
173.341980
190.968201
197.636154
189.498581
165.080032
125.917557
76.555298
23.412079
-26.869339
-69.151947
-100.837982
-122.042068
-134.634735
-140.930664
-142.737183
-140.962860
-135.919083
-127.915710
-117.534698
-105.821609
-94.085297
-83.568192
-75.141632
-69.218567
-65.603409
-63.630814
-62.386810
-61.007858
-58.962418
-56.093811
-52.307739
-47.398834
-40.918762
-32.280945
-21.160355
-7.769638
7.125168
22.380081
36.882034
49.890427
61.154465
70.899841
79.906967
89.397217
100.889893
115.846405
135.011246
157.695740
181.265625
201.276871
212.289932
209.419113
189.851913
153.923691
105.438660
50.617661
-3.557434
-51.071426
-88.202393
-113.800644
-128.767273
-135.079834
-134.889526
-129.967621
-121.713684
-111.305634
-99.916656
-88.750610
-78.853333
-70.963959
-65.305481
-61.662933
-59.501770
-58.220947
-57.317780
-56.515808
-55.720428
-54.836487
-53.532318
-51.114471
-46.602783
-39.070770
-28.070496
-13.944580
2.192017
18.752289
34.193176
47.624542
58.932983
68.780273
78.411560
89.280762
102.819366
120.052673
141.109406
164.665588
187.619690
205.353241
212.588898
204.923431
180.281891
139.846680
87.998322
31.173492
-23.792297
-71.346924
-108.160400
-133.327393
-147.867706
-153.861786
-153.661835
-149.374359
-142.615479
-134.491730
-125.722443
-116.854431
-108.379181
-100.725250
-94.326111
-89.457764
-86.160034
-84.164337
-82.985016
-82.042511
-80.734100
-78.557159
-75.008606
-69.664062
-62.205902
-52.521484
-40.759735
-27.334259
-12.852539
2.109558
17.008759
31.419220
45.033691
57.658905
69.348755
80.478882
91.764435
104.171387
118.837616
136.645142
157.747314
180.964569
203.347595
220.395020
226.811432
218.076569
192.045929
149.934967
96.284912
37.774231
-18.626740
-67.343170
-105.156189
-131.261932
-146.633545
-153.208435
-153.188446
-148.646423
-141.288269
-132.448792
-123.142395
-114.062592
-105.674988
-98.264832
-91.973969
-86.870453
-83.007660
-80.417816
-79.063843
-78.746307
-78.901917
-78.677155
-77.032562
-73.064453
-66.354126
-57.175964
-46.390869
-35.134186
-24.302368
-14.259003
-4.722046
5.029510
15.762939
27.827209
41.005920
54.524902
67.431244
79.060516
89.487640
99.673004
111.314148
126.239166
145.510620
168.565033
192.649506
213.034576
223.997528
220.382507
199.237839
160.946564
109.383484
50.962006
-7.039185
-58.197845
-98.301819
-125.823746
-141.562698
-147.757462
-147.087738
-142.002716
-134.299759
-125.242035
-115.688812
-106.294174
-97.558685
-89.815552
-83.205429
-77.743011
-73.367584
-70.016754
-67.648895
-66.224960
-65.518036
-65.082947
-64.252274
-62.229767
-58.451355
-52.763199
-45.490921
-37.220917
-28.460236
-19.357697
-9.606689
1.276993
13.632401
27.247604
41.386200
55.016800
67.163498
77.442993
86.274551
94.936646
105.358566
119.566391
138.762436
162.316879
187.171677
208.019897
218.562943
213.444839
190.097900
149.845840
97.650085
40.670929
-13.645233
-59.397446
-93.367920
-115.110962
-126.237633
-129.440094
-127.390137
-122.101532
-114.802361
-106.104279
-96.414825
-86.261238
-76.229706
-66.942429
-58.871780
-52.290695
-47.291679
-43.884377
-41.931206
-41.110542
-41.000954
-41.006111
-40.506035
-38.827858
-35.221382
-28.922295
-19.393097
-6.718155
8.242668
23.817924
38.088966
49.506653
57.456200
62.447632
65.823730
69.322876
74.816605
83.799355
97.026772
114.132401
133.051743
149.995697
160.053314
158.519272
142.479889
112.028214
70.503586
23.508965
-22.558372
-62.400745
-92.761749
-112.726982
-123.194138
-125.939201
-122.932854
-115.820251
-105.936478
-94.369873
-82.085503
-69.936859
-58.521290
-48.171356
-38.940941
-30.799101
-23.749269
-17.919968
-13.535551
-10.819445
-9.782722
-10.151342
-11.206591
-11.869049
-10.733647
-6.485209
1.679755
13.631272
28.183861
43.384151
57.177116
68.181190
76.184189
82.187798
88.063156
95.964088
107.724808
124.279129
145.130798
167.952286
188.691238
202.131729
203.268906
188.865051
158.693176
115.829193
65.903809
15.427294
-29.918495
-66.503281
-93.118912
-110.514740
-120.449966
-124.909897
-125.455040
-123.048096
-118.223488
-111.349998
-102.902649
-93.589874
-84.155075
-75.225441
-67.110977
-59.851475
-53.317741
-47.596443
-43.011600
-39.971600
-38.709297
-38.859516
-39.278450
-38.224297
-33.794662
-24.725197
-11.011013
5.865929
23.471535
39.217915
51.487812
60.291458
67.178703
74.638641
85.087448
100.022636
119.425789
141.483124
162.664978
178.173340
182.978409
173.114746
147.187012
107.086006
57.740944
5.793098
-42.317802
-81.964783
-110.923630
-129.268616
-138.598694
-141.257629
-139.631226
-135.830368
-131.372650
-126.995354
-122.714279
-118.024155
-112.353836
-105.443710
-97.462593
-88.999306
-80.957672
-74.313393
-69.841713
-67.915573
-68.170921
-69.455688
-70.108528
-68.495720
-63.590847
-55.413017
-44.670696
-32.410954
-19.437500
-6.095276
7.548965
21.450806
35.338676
48.740387
61.115364
72.154510
81.915970
90.820374
99.825378
110.241791
123.513863
140.660675
161.493530
183.988022
204.138855
216.630463
216.257370
199.612320
166.421692
119.842865
65.778297
11.146502
-37.903526
-77.364792
-105.839874
-124.112823
-134.196289
-138.405823
-138.730499
-136.611374
-133.050842
-128.715088
-123.939003
-118.832199
-113.282265
-107.213165
-100.797447
-94.648781
-89.629486
-86.606567
-86.044754
-87.711281
-90.667549
-93.525009
-94.818634
-93.437378
-88.948288
-81.686752
-72.519096
-62.628094
-53.001450
-44.147686
-36.025185
-28.192055
-20.117096
-11.453125
-2.261086
7.120575
16.209244
24.692314
32.618027
40.409767
48.744553
58.184341
68.886642
80.482391
92.138901
102.950119
112.417740
120.786728
129.087814
138.886337
151.834900
168.854660
189.508591
211.489838
230.536377
241.232285
238.341614
218.576447
182.060303
132.536804
76.407211
20.763092
-28.545212
-68.162323
-97.260513
-116.651215
-127.914703
-132.607819
-132.171921
-127.963943
-121.258606
-113.186783
-104.656342
-96.337280
-88.650085
-81.956665
-76.512466
-72.466782
-69.873169
-68.676102
-68.801910
-70.030716
-71.760742
-72.933670
-72.262329
-68.570435
-61.447525
-51.503418
-40.113754
-28.875320
-18.936981
-10.560379
-3.193665
4.138657
12.450623
22.311630
33.681259
45.915817
58.008392
69.007004
78.416809
86.514618
94.306442
103.421143
115.544769
131.742584
151.944824
174.350037
195.308807
209.793091
212.492889
199.448242
169.533142
125.179993
71.910889
16.773834
-33.597351
-74.573578
-104.092682
-122.421906
-131.187622
-132.537048
-128.532104
-120.967468
-111.329651
-100.814423
-90.356537
-80.593567
-71.913971
-64.524933
-58.549927
-54.034851
-50.937805
-49.085754
-48.177460
-47.831085
-47.562531
-46.883881
-45.371368
-42.653046
-38.456116
-32.603638
-24.945679
-15.483643
-4.352936
7.988373
20.903168
33.570557
45.249084
55.487854
64.282166
72.145782
80.090271
89.425842
101.654968
117.912964
138.323425
161.322083
183.328522
199.167969
203.279236
191.504303
162.590912
118.932495
66.006042
10.883911
-39.560425
-80.342285
-109.103760
-126.007629
-133.000763
-132.770477
-127.896729
-120.301605
-111.240021
-101.431274
-91.423462
-81.773773
-72.980225
-65.388916
-59.069031
-53.834564
-49.332886
-45.388367
-41.997833
-39.323578
-37.537018
-36.569244
-35.917786
-34.633698
-31.409454
-24.990173
-14.710724
-0.889771
15.111053
31.234406
45.591766
57.095428
65.823395
72.911102
80.078644
89.167480
101.750061
118.759918
140.005676
163.593704
185.760406
201.222137
204.463867
191.510910
161.379166
116.721848
63.174652
7.754532
-42.811356
-83.646652
-112.443207
-129.354462
-136.329239
-136.227341
-131.894928
-125.426407
-118.044739
-110.176529
-101.871048
-93.176437
-84.251266
-75.469376
-67.264618
-60.130798
-54.437454
-50.519928
-48.417007
-47.831314
-48.153351
-48.553268
-48.224014
-46.574173
-43.037827
-37.142883
-28.559830
-17.197189
-3.511383
11.482971
26.469727
40.279785
52.211746
62.313248
71.247131
80.014420
89.925919
102.289764
118.174850
137.926529
160.456970
182.789215
200.230682
207.421432
199.868210
175.594894
136.084351
85.949402
31.848602
-19.486588
-62.817535
-95.369278
-116.794769
-128.464935
-132.429214
-130.690552
-124.820358
-116.062378
-105.504486
-94.252823
-83.336868
-73.557190
-65.357422
-58.711288
-53.349884
-48.935852
-45.283554
-42.419968
-40.551285
-39.827286
-40.095642
-40.733276
-40.623459
-38.377655
-32.814178
-23.364487
-10.372620
4.892845
20.725006
35.465584
48.048042
58.296875
66.956276
75.533661
86.041603
100.488350
120.174011
144.893723
172.412079
198.404999
217.253510
223.431244
213.102570
185.367569
142.670990
90.305893
35.022057
-16.599556
-59.636417
-91.661713
-112.621048
-124.198898
-128.726547
-128.292511
-124.394302
-117.995346
-109.865997
-100.865807
-91.827797
-83.416023
-75.881660
-69.163765
-63.045830
-57.576195
-53.042450
-49.861984
-48.333324
-48.202751
-48.608788
-48.159843
-45.240082
-38.517677
-27.431406
-12.507999
4.751881
22.278519
38.116783
51.148159
61.363731
69.845917
78.419052
89.155487
104.000298
124.025917
148.720764
175.411469
199.330887
214.402863
214.997314
197.747620
162.703461
113.546928
56.573318
-1.075592
-52.961700
-94.712067
-124.467010
-142.803574
-152.013046
-155.186829
-155.165314
-153.812057
-151.763596
-148.688553
-143.961609
-137.264771
-128.749374
-119.085876
-109.223541
-100.176056
-92.823914
-87.799301
-85.225937
-84.638596
-84.997620
-84.942764
-83.183014
-78.962143
-72.053787
-62.738434
-51.582642
-39.084641
-25.661041
-11.591827
2.935989
17.717987
32.472351
46.859924
60.557358
73.372879
85.620850
98.162628
112.407227
129.804413
151.079346
175.413193
200.037994
220.432526
231.286133
227.963043
207.830994
171.242966
121.695816
65.064896
8.163513
-42.850998
-83.716354
-112.722778
-130.513321
-139.299316
-141.935532
-141.006851
-138.367737
-134.972595
-131.053741
-126.447266
-120.909378
-114.329453
-106.838745
-98.886261
-91.145508
-84.438736
-79.539978
-76.853500
-76.307892
-77.179794
-78.105331
-77.538559
-74.233780
-67.772308
-58.681870
-48.206955
-37.640503
-27.677353
-18.150513
-8.240891
2.970963
15.888290
30.201950
45.062485
59.521164
73.066895
85.950363
99.178955
114.242630
132.528839
154.519318
179.080185
203.048294
221.537918
229.170685
221.503616
196.642319
155.990448
104.045288
47.225082
-7.767258
-55.465530
-92.603546
-118.305176
-133.595963
-140.590775
-141.534653
-138.281601
-132.098083
-123.872253
-114.327042
-104.290924
-94.622833
-86.029922
-78.910477
-73.297958
-68.984863
-65.731369
-63.247055
-61.260452
-59.455627
-57.476700
-54.970978
-51.749893
-47.694656
-42.709213
-36.630905
-29.213562
-20.208954
-9.509048
2.847519
16.578857
31.177338
45.903900
59.953918
72.648972
83.907730
94.516617
106.165359
120.836349
139.815475
162.562103
186.286942
206.198486
216.703461
213.010803
192.651428
156.316544
107.863892
53.355545
-0.487457
-47.826950
-84.888458
-110.393890
-125.072357
-130.881271
-130.068787
-124.558929
-115.824219
-105.114990
-93.590378
-82.440735
-72.629318
-64.671951
-58.532669
-53.754990
-49.726654
-46.014450
-42.539261
-39.597321
-37.573715
-36.635712
-36.357590
-35.666107
-33.045151
-27.083740
-17.035934
-3.216049
13.139313
30.217224
46.276428
60.186356
71.731461
81.604599
91.246185
102.485992
117.016739
135.720291
157.901947
180.765457
199.668533
209.037430
204.019379
182.096161
144.191559
94.486847
39.443146
-14.100281
-60.611633
-96.956970
-122.520325
-138.549820
-147.055161
-149.948273
-148.605331
-144.009018
-136.960709
-128.420380
-119.452454
-111.002243
-103.627579
-97.337830
-91.679932
-86.111084
-80.249603
-74.122925
-68.172379
-62.976700
-58.895248
-55.803543
-52.922333
-48.986786
-42.725037
-33.290878
-20.639664
-5.590225
10.631805
26.702560
41.675339
55.085953
67.006744
78.014236
89.156677
101.932846
117.807480
137.518173
160.216187
182.921112
200.936325
208.906845
202.450745
179.572632
141.492432
92.304291
38.005051
-15.012726
-61.395172
-97.788467
-123.148727
-138.368484
-145.387283
-146.478912
-143.613342
-138.269775
-131.516891
-124.160751
-116.791199
-109.689941
-102.919769
-96.397064
-90.055847
-84.054077
-78.661514
-74.074631
-70.288895
-67.099426
-64.191513
-61.315247
-58.182739
-54.444000
-49.575577
-42.897781
-33.856186
-22.281296
-8.412689
7.098343
23.332108
39.289185
54.099823
67.170181
78.416885
88.482803
98.687546
110.786270
126.414307
146.281799
169.599777
193.615234
213.791107
224.670837
221.239517
200.504303
162.750534
111.850647
54.318649
-2.404297
-51.893234
-90.261215
-116.363373
-131.415680
-137.840485
-138.310425
-135.079620
-129.774948
-123.347504
-116.313141
-108.924103
-101.358810
-93.843102
-86.686958
-80.187340
-74.537186
-69.878410
-66.263222
-63.720734
-62.261749
-61.643776
-61.267731
-60.213524
-57.466545
-52.307823
-44.514084
-34.389626
-22.501617
-9.441803
4.327255
18.422607
32.326584
45.454910
57.216896
67.320679
76.053177
84.370255
93.842247
106.436539
123.774155
146.279053
172.368393
198.076981
217.563339
224.628296
214.707947
186.518158
142.711777
89.040428
32.676846
-19.719097
-63.436604
-96.196960
-117.880333
-129.749161
-133.824646
-132.298294
-127.126625
-119.935822
-111.833694
-103.463379
-95.126572
-86.792694
-78.470291
-70.311653
-62.847446
-56.899101
-53.355171
-52.707081
-54.708725
-58.271194
-61.711102
-63.351479
-61.992416
-57.204163
-49.231277
-38.845421
-27.007553
-14.573233
-2.203968
9.756176
21.214960
32.215820
42.791016
52.882835
62.436447
71.707558
81.369659
92.539093
106.485168
124.159515
145.480164
168.894608
191.119263
207.423050
212.628387
202.512314
175.341644
132.879608
80.222939
24.460438
-27.374245
-70.142014
-101.579285
-122.046478
-133.414124
-137.924194
-137.381958
-132.914474
-125.331741
-115.332367
-103.767281
-91.647003
-79.982193
-69.688538
-61.383171
-55.334885
-51.374077
-49.065964
-47.778046
-46.954117
-46.198708
-45.151108
-43.483185
-40.782761
-36.694160
-30.869926
-23.207893
-13.764313
-2.813301
9.210869
21.779411
34.311951
46.292740
57.485695
68.031845
78.406143
89.468292
102.323212
117.976768
136.966034
158.716980
180.928680
199.484818
209.134338
205.016983
184.523453
148.411758
100.961075
48.656418
-1.818893
-45.338654
-79.216255
-103.002457
-117.701019
-124.769424
-125.592041
-121.404221
-113.352905
-102.710709
-90.843796
-79.084991
-68.494553
-59.734390
-52.934708
-47.817474
-43.935760
-40.883209
-38.499832
-36.809067
-35.734589
-34.926132
-33.758865
-31.405411
-27.071594
-20.253876
-10.803299
0.963593
14.291733
28.093796
41.204742
52.751602
62.591789
71.459854
80.751785
92.126633
106.972458
125.857666
148.146362
171.752518
193.006287
207.067169
208.926270
194.836700
163.922974
118.834412
65.240379
10.209770
-39.901978
-81.027229
-111.693871
-132.449341
-144.836029
-150.383423
-150.371246
-145.926224
-138.188293
-128.349213
-117.554535
-106.776550
-96.719009
-87.896278
-80.589714
-74.893608
-70.724243
-67.792244
-65.702896
-64.021751
-62.213097
-59.737869
-56.112083
-50.975174
-44.135269
-35.649200
-25.610794
-14.100677
-1.249748
12.694672
27.200264
41.527031
54.969650
67.218834
78.568268
89.919220
102.568787
117.744583
136.224182
157.763733
180.559509
201.102463
214.520691
215.780701
201.340454
170.497711
125.961136
73.187592
18.818550
-31.154770
-72.595482
-103.673782
-124.563721
-136.621582
-141.726532
-141.788605
-138.319458
-132.479462
-125.001152
-116.305542
-106.775757
-96.943993
-87.464981
-78.981827
-72.009804
-66.776512
-63.170784
-60.894447
-59.360435
-57.893295
-55.845047
-52.671188
-48.115433
-42.129868
-34.751755
-25.955536
-15.703865
-4.044533
8.725334
22.016693
35.241203
47.964615
60.122116
72.026382
84.267517
97.588051
112.809547
130.646210
151.241272
173.584412
194.875641
210.655121
215.729172
205.753113
178.877411
136.710114
84.168922
28.057213
-24.724693
-68.913834
-101.865921
-123.453644
-135.347626
-139.875610
-139.073639
-134.396454
-126.806175
-117.245590
-106.851761
-96.994240
-88.829559
-82.885651
-78.929749
-76.088058
-73.354164
-70.026817
-65.899414
-61.222965
-56.467590
-52.018944
-47.911945
-43.735046
-38.673042
-31.738083
-22.193840
-9.868633
4.631966
20.099010
35.264671
49.183437
61.549229
72.676109
83.294273
94.360519
106.934395
122.021957
140.147339
160.654419
181.186890
197.567993
204.714478
198.049484
175.212036
137.088196
87.823677
33.643375
-18.802193
-64.111214
-99.189499
-123.305603
-137.517090
-143.717896
-143.764038
-139.083847
-130.754669
-119.801804
-107.454102
-95.217407
-84.493439
-76.178963
-70.405228
-66.552536
-63.634258
-60.785435
-57.521767
-53.854305
-50.162792
-46.897812
-44.228745
-41.870678
-39.069950
-34.723495
-27.816628
-17.822872
-5.003551
9.602776
24.657684
38.917152
51.699421
63.035927
73.578125
84.420700
96.857147
112.149536
131.048599
153.158249
176.329865
196.524277
208.575500
207.471313
190.078766
156.424652
109.951439
56.604202
3.191566
-44.443489
-82.648453
-110.242485
-127.865974
-137.065964
-139.406113
-136.095306
-128.202362
-116.930542
-103.812675
-90.557495
-78.623940
-68.802292
-61.082390
-54.885445
-49.522957
-44.575275
-39.997650
-36.054123
-33.063568
-31.171091
-30.099955
-29.155680
-27.222046
-23.035328
-15.598160
-4.635262
9.167688
24.297993
39.037422
52.086056
63.068066
72.602257
82.156792
93.429817
107.944450
126.453033
148.292175
171.018372
190.410645
201.217453
198.677628
180.023392
145.633209
99.117279
46.340023
-6.266951
-53.285275
-91.329346
-119.223671
-137.470108
-147.461563
-150.854294
-149.032578
-143.121735
-134.113388
-123.144844
-111.464172
-100.390656
-90.960999
-83.597046
-78.109207
-73.827255
-70.024910
-66.256523
-62.317074
-58.293972
-54.283928
-50.271172
-45.999657
-41.025398
-34.699673
-26.377033
-15.601509
-2.443016
12.418575
27.821934
42.607929
56.092361
68.397667
80.418945
93.522430
109.067001
127.967377
150.175995
174.218353
196.973679
213.903793
219.886551
210.789581
184.903671
143.793030
92.077347
36.207600
-17.309067
-63.418732
-99.331573
-124.495155
-139.938446
-147.478302
-149.082092
-146.316498
-140.371048
-132.116837
-122.320900
-111.752876
-101.282730
-91.672188
-83.417076
-76.707947
-71.460434
-67.473022
-64.527962
-62.307510
-60.447365
-58.517082
-56.076851
-52.799080
-48.421577
-42.588470
-34.787148
-24.460060
-11.351898
4.177238
21.015938
37.682526
52.891914
66.093735
77.707718
88.973373
101.553497
117.056168
136.462326
159.457245
184.032654
206.249878
220.788971
222.239273
206.786667
173.700836
125.934868
69.513962
11.839600
-40.307175
-82.447044
-112.943626
-132.617676
-143.657593
-148.395844
-148.485168
-144.824310
-137.906769
-128.377441
-117.231857
-105.825607
-95.373962
-86.594872
-79.579521
-74.024109
-69.585007
-66.070076
-63.372459
-61.289360
-59.406502
-57.101280
-53.775627
-49.106873
-43.018272
-35.538712
-26.697662
-16.441055
-4.737053
8.243317
22.129242
36.362167
50.341270
63.607292
75.978127
87.775940
99.815041
113.427017
129.972672
150.191132
173.315308
196.480682
215.007050
223.355774
216.831085
193.162903
153.572968
102.570328
46.793488
-6.838181
-52.868538
-88.265656
-112.539841
-126.973900
-133.486633
-133.865631
-129.486908
-121.478493
-111.037682
-99.590897
-88.514809
-78.870522
-71.054199
-64.893188
-59.877380
-55.516647
-51.554955
-48.039322
-45.201920
-43.245445
-42.087296
-41.215889
-39.560989
-35.741798
-28.466240
-17.043938
-1.805840
15.850334
33.999146
50.768135
65.045647
76.774521
86.928696
97.185799
109.484169
125.460243
145.733856
169.249329
192.899948
211.809296
220.472260
214.280502
191.137878
152.220947
101.854424
46.248428
-8.033264
-55.639893
-93.309952
-120.093628
-136.793335
-145.201691
-147.244812
-144.525299
-138.204727
-129.257614
-118.690338
-107.710953
-97.536606
-89.083054
-82.710892
-78.133957
-74.672256
-71.646851
-68.599838
-65.490311
-62.545334
-60.016815
-57.806427
-55.338974
-51.559723
-45.171219
-35.211868
-21.452393
-4.630814
13.716492
31.851517
48.364761
62.587311
74.772064
85.929398
97.609573
111.586823
129.251816
150.882126
174.862778
197.435135
213.186279
216.512482
203.350052
172.625458
126.807281
71.263428
12.823151
-41.948532
-88.123688
-123.092545
-146.571274
-159.919556
-165.414337
-165.331711
-161.522781
-155.270020
-147.375885
-138.395462
-128.819885
-119.069672
-109.484756
-100.375336
-92.085083
-85.089386
-79.812027
-76.400986
-74.530869
-73.336197
-71.723740
-68.702042
-63.753799
-56.848297
-48.295303
-38.505341
-27.756317
-16.197540
-3.910431
9.083069
22.667572
36.626602
50.588913
64.105789
76.742966
88.346466
99.391251
111.043259
124.994644
142.725037
164.501007
188.603851
211.135406
226.699356
229.809448
216.541687
185.787537
139.738327
83.458908
23.673264
-32.786224
-80.395615
-115.904648
-138.551880
-149.728455
-152.144577
-148.888260
-142.634201
-135.191162
-127.466827
-119.734100
-112.008621
-104.304367
-96.747559
-89.604324
-83.193649
-77.832047
-73.822830
-71.312439
-70.165222
-69.886459
-69.604874
-68.291473
-65.025955
-59.295807
-51.127487
-41.004303
-29.538406
-17.226166
-4.295135
9.262466
23.452713
38.056488
52.534317
66.203812
78.449554
89.052963
98.466019
107.862549
119.065384
133.976898
153.787155
178.015213
203.881516
226.440002
239.609787
237.928711
218.237259
180.920349
129.945404
71.800461
13.817444
-37.689926
-78.633041
-107.590057
-125.348801
-133.997635
-135.823257
-132.652893
-125.647644
-115.553314
-103.206482
-89.804764
-76.796127
-65.502853
-56.701538
-50.441437
-46.189217
-43.280930
-41.287430
-40.174210
-40.118988
-41.134003
-42.708282
-43.727737
-42.620575
-37.887268
-28.674408
-15.216644
1.162613
18.379364
34.361740
47.794418
58.541519
67.705475
77.195297
89.117950
105.255936
126.297073
151.318497
177.422272
199.906189
213.088715
211.779053
192.885086
156.613617
106.663391
49.371429
-8.018845
-59.110565
-99.730392
-128.354370
-145.769775
-154.100189
-155.907578
-153.320496
-147.796494
-140.214523
-131.186661
-121.303192
-111.306305
-101.838715
-93.348053
-85.993057
-79.723175
-74.468369
-70.223434
-66.972885
-64.671127
-63.090195
-61.781326
-60.046127
-56.958313
-51.395844
-42.337296
-29.215393
-12.422119
6.759262
26.295654
44.224960
59.264938
71.260101
81.160095
90.656143
101.685455
116.086533
135.095795
158.714661
185.112427
210.326385
228.673111
234.106644
222.103714
191.268845
144.096268
86.417404
25.769287
-30.581238
-77.339981
-111.989227
-134.690643
-147.382309
-152.712830
-153.063019
-150.085312
-144.675751
-137.330688
-128.467087
-118.736084
-108.848694
-99.458466
-90.955383
-83.477661
-77.028625
-71.614487
-67.261414
-63.935135
-61.496948
-59.564392
-57.554337
-54.657761
-49.930038
-42.397873
-31.430374
-16.999405
0.047058
18.173523
35.554642
50.775391
63.287857
73.615341
83.136276
93.600937
106.765152
123.902634
145.360596
170.048035
195.111160
215.964066
227.127182
223.605499
202.500931
164.285828
112.893234
54.867447
-2.381607
-52.493668
-91.553665
-118.429092
-134.195908
-141.007370
-141.046814
-135.905289
-126.739731
-114.648361
-101.047394
-87.567368
-75.671082
-66.082687
-58.723190
-52.872147
-47.823090
-43.322678
-39.658173
-37.401245
-36.947586
-38.057968
-39.709778
-40.299042
-38.031921
-31.498978
-20.230408
-4.929199
12.641998
30.301392
46.153534
59.334946
70.232468
80.316574
91.643768
106.233078
125.474991
149.408051
176.164001
201.702393
220.372498
226.211426
214.811676
185.034988
139.620285
84.548004
27.242508
-25.500763
-69.010330
-101.254379
-122.398895
-133.866577
-137.490875
-135.028793
-128.087524
-118.167923
-106.699753
-94.944595
-83.807007
-73.714355
-64.611389
-56.207092
-48.327026
-41.220581
-35.557571
-32.151703
-31.440506
-32.958435
-35.289062
-36.331345
-33.974838
-26.870728
-14.807236
1.247299
19.471359
37.806335
54.555511
68.823181
80.831345
91.884033
104.097656
119.737381
140.218369
165.020950
191.164536
213.512482
226.002136
223.479675
203.328247
166.312927
116.379791
59.539673
2.295349
-49.697693
-92.590424
-124.515442
-145.373962
-156.309082
-159.219574
-156.194519
-149.181946
-139.728210
-128.958282
-117.617188
-106.311859
-95.534241
-85.776215
-77.362885
-70.479523
-65.098694
-61.076874
-58.176636
-56.121704
-54.520233
-52.696198
-49.662079
-44.239929
-35.404877
-22.758881
-6.709534
11.515167
30.287537
48.064545
63.831543
77.365967
89.378845
101.401978
115.523804
133.606445
156.484985
182.846954
208.975494
229.308228
238.020172
230.805298
206.274170
166.255554
115.144806
58.523651
1.976471
-49.894348
-93.748657
-127.687500
-151.088745
-164.506226
-169.388275
-167.717468
-161.463379
-152.332764
-141.490631
-129.761078
-117.713654
-105.913330
-94.903381
-85.208435
-77.239838
-71.215424
-67.137390
-64.758118
-63.562592
-62.849243
-61.628296
-58.795410
-53.194519
-44.043945
-31.119995
-15.026184
2.919189
21.129578
38.200562
53.370850
66.756287
79.343201
92.826721
109.189270
130.088684
155.900269
184.965881
213.213867
234.933655
244.275513
237.125000
212.333984
171.982849
120.485596
63.292419
5.715271
-47.794617
-93.897339
-130.427917
-156.528137
-172.661560
-180.376038
-181.793396
-178.954285
-173.234985
-165.355103
-155.648499
-144.541138
-132.827881
-121.642517
-112.189575
-105.392700
-101.571777
-100.333435
-100.662415
-101.150940
-100.449219
-97.602478
-92.179565
-84.279358
-74.201599
-62.343872
-49.007629
-34.513672
-19.168762
-3.271423
12.934570
29.297852
45.718140
62.055054
78.059448
93.430908
108.022156
122.144226
136.792725
153.456421
173.461304
197.015747
222.392212
245.640503
261.417053
264.518127
251.492676
221.691650
177.318237
122.650330
62.870544
3.089661
-52.206665
-99.513733
-136.563354
-162.649353
-178.614563
-186.544739
-188.905518
-187.729919
-184.072083
-178.216309
-170.214966
-160.549438
-150.324646
-140.981384
-133.843262
-129.706665
-128.643005
-130.147583
-133.316833
-137.041748
-140.190796
-141.827637
-141.283386
-138.290405
-132.888184
-125.348022
-116.099670
-105.659790
-94.681885
-83.906128
-73.935791
-65.125671
-57.384766
-50.246399
-43.037048
-35.199036
-26.422485
-16.701965
-6.268799
4.533539
15.338806
25.848267
35.888855
45.475586
54.871582
64.483154
74.762543
85.983582
98.145844
110.998718
124.084717
136.888611
148.998383
160.235748
170.890472
181.842010
194.585480
210.655243
230.752350
253.707977
275.951141
292.003754
295.955933
283.318115
252.412628
204.862183
144.979248
78.614197
11.892303
-49.637207
-101.572876
-141.040283
-166.998749
-180.322906
-183.489502
-179.857422
-172.649536
-164.157257
-155.491760
-146.874115
-138.247406
-129.715576
-121.741943
-115.014771
-110.122833
-107.435120
-106.955566
-108.346008
-110.986603
-114.095947
-116.770355
-118.082184
-117.254242
-113.779449
-107.577209
-99.082977
-89.202103
-79.028931
-69.557693
-61.315491
-54.258240
-47.817703
-41.158752
-33.598923
-24.811874
-15.027954
-4.823456
5.078629
14.244598
22.740982
31.112030
40.175812
50.638016
62.711319
75.984619
89.549149
102.404961
113.882553
123.878914
132.980133
142.332764
153.391678
167.539124
185.498596
206.711853
228.784851
247.487335
257.386932
253.235901
231.597198
192.217728
138.445602
76.476730
13.770738
-42.824287
-88.559998
-121.395798
-141.734528
-151.607376
-153.768600
-150.909821
-145.254150
-138.435272
-131.564178
-125.246735
-119.683533
-114.711792
-109.990646
-105.210358
-100.286697
-95.481712
-91.280075
-88.200974
-86.549202
-86.161781
-86.425652
-86.373238
-84.879623
-81.034050
-74.349190
-64.896591
-53.268967
-40.468338
-27.630280
-15.767410
-5.553513
2.899704
10.055222
16.823212
24.277008
33.205139
43.824875
55.633820
67.617798
78.700882
88.229675
96.309906
103.822906
112.274841
123.266266
138.015015
156.767944
178.261902
199.447205
215.731140
221.902527
213.561768
188.628662
148.283478
96.947723
41.120697
-12.291107
-57.702881
-91.819183
-113.856445
-125.039581
-127.696899
-124.497162
-117.866272
-109.696014
-101.200195
-92.951111
-85.032013
-77.282104
-69.575409
-61.994049
-54.929047
-48.968567
-44.720886
-42.581055
-42.494385
-43.929199
-45.917999
-47.304504
-47.036285
-44.464752
-39.505920
-32.628815
-24.597992
-16.151978
-7.689636
0.850891
9.917938
19.973999
31.165588
43.100311
54.939606
65.799591
75.213013
83.442413
91.546356
101.014587
113.237427
128.881470
147.421509
166.746826
183.269775
192.452271
189.925476
172.827515
140.978577
97.342224
47.417480
-2.213806
-45.650635
-79.068481
-101.246338
-113.140442
-116.942871
-115.018860
-109.290344
-101.044067
-91.096619
-80.126648
-68.865601
-58.152771
-48.801025
-41.413025
-36.196350
-32.948975
-31.143250
-30.194885
-29.664185
-29.278870
-28.926819
-28.402344
-27.278076
-24.907166
-20.561035
-13.710449
-4.285278
7.194397
19.748291
32.128906
43.274597
52.576782
60.136780
66.703857
73.502380
81.926025
93.138062
107.734192
125.332031
144.282837
161.447998
172.656372
173.541199
160.986938
134.355408
96.071106
51.165405
5.755310
-34.600525
-66.297302
-88.097351
-100.630554
-105.538513
-104.611511
-99.416626
-91.235596
-81.294800
-70.753845
-60.685242
-51.857727
-44.588318
-38.788025
-34.045105
-29.974243
-26.371338
-23.369202
-21.382935
-20.857849
-21.838989
-23.724609
-25.221619
-24.684937
-20.704407
-12.681946
-1.093872
12.668396
26.755005
39.518127
50.038452
58.347900
65.465759
73.095093
83.135620
97.010803
114.963440
135.403320
154.862427
168.585022
171.762878
161.133911
136.138306
99.320923
55.611938
10.960205
-29.277527
-61.468689
-84.095215
-97.488403
-103.051941
-102.599915
-97.887024
-90.415039
-81.486572
-72.207214
-63.401062
-55.596252
-48.909424
-43.103821
-37.831848
-32.848206
-28.229614
-24.391846
-21.887207
-21.073975
-21.743347
-22.951965
-23.155090
-20.653931
-14.186157
-3.466370
10.609314
26.237488
41.238098
53.870422
63.438721
70.566772
76.987976
84.978699
96.592407
112.807434
132.840210
153.917664
171.597107
180.815369
177.317871
159.092773
127.210266
85.664246
40.233032
-3.148438
-39.930664
-67.786255
-86.549133
-97.508484
-102.456177
-103.064148
-100.541016
-95.753601
-89.351807
-81.889709
-73.800720
-65.389954
-56.920715
-48.664124
-41.017151
-34.559937
-29.988647
-27.831543
-28.207153
-30.621521
-33.832031
-36.061462
-35.385071
-30.327240
-20.344055
-6.102295
10.666168
27.665375
42.838959
55.132141
64.830231
73.511810
83.487579
97.059937
115.574036
138.689056
163.928223
186.845795
201.912598
203.970337
189.926147
159.919250
117.556854
68.939606
20.832672
-21.241333
-54.234100
-77.693939
-93.045654
-102.400604
-107.552917
-109.600922
-109.036224
-106.145660
-101.356384
-95.289734
-88.633240
-81.875244
-75.166504
-68.416687
-61.515594
-54.591736
-48.102203
-42.794556
-39.324036
-37.854599
-37.693100
-37.335129
-34.854080
-28.614182
-17.925323
-3.445160
13.047440
29.301788
43.435806
54.665237
63.529327
71.725632
81.474304
94.862015
113.088577
135.821182
160.847076
184.086304
200.358978
204.587814
193.280640
165.741547
124.449432
74.494591
22.291931
-26.100296
-66.366348
-96.659874
-117.419144
-130.599777
-138.621750
-143.406708
-145.942001
-146.350006
-144.350327
-139.819046
-133.129150
-125.176643
-117.048706
-109.722504
-103.822220
-99.638298
-97.223686
-96.456085
-97.099991
-98.696007
-100.544266
-101.767029
-101.462288
-98.916855
-93.807594
-86.252602
-76.825821
-66.346649
-55.672974
-45.483246
-36.068619
-27.321968
-18.772896
-9.742851
0.430153
12.208298
25.651093
40.421028
55.898056
71.295738
85.880226
99.187553
111.153824
122.209351
133.399704
146.222855
162.180298
182.032898
204.914093
227.832291
246.027451
254.118271
247.748047
224.968002
186.764404
136.695374
79.866531
21.820831
-32.404037
-78.905533
-115.290802
-140.926239
-156.868195
-165.385132
-169.164917
-170.408020
-170.269699
-168.890320
-165.945526
-161.294662
-155.283493
-148.696533
-142.472336
-137.366562
-133.860916
-132.153000
-132.209351
-133.744919
-136.260590
-139.004929
-141.105026
-141.756531
-140.392853
-136.860443
-131.470139
-124.929840
-118.135529
-111.837128
-106.383118
-101.594711
-96.827866
-91.303284
-84.455215
-76.156601
-66.732346
-56.764954
-46.827377
-37.235855
-27.950867
-18.680084
-9.039841
1.312149
12.466415
24.209381
36.056877
47.457214
58.036606
67.730438
76.906273
86.129318
95.993050
106.833115
118.648468
131.155487
143.863647
156.302277
168.231293
179.878281
192.087433
206.096451
222.971848
242.746094
263.594025
281.711487
292.012939
289.545685
271.064667
236.033112
186.794891
127.897133
65.062355
4.068531
-50.121170
-93.974144
-125.766327
-145.757782
-155.914139
-159.251282
-158.856201
-156.964539
-154.522461
-151.343918
-146.642273
-139.760208
-130.633820
-119.931534
-108.900780
-99.008240
-91.570984
-87.535721
-87.202599
-90.174721
-95.388756
-101.232872
-105.803085
-107.289200
-104.454056
-96.925438
-85.382782
-71.313721
-56.428669
-42.054443
-28.589699
-15.572903
-2.059864
12.694504
28.761600
45.379616
61.381950
75.689438
87.760704
97.914734
107.355453
117.920135
131.636551
150.035782
173.215851
199.121353
223.303528
239.692810
242.171524
226.543488
192.095917
142.058838
82.713173
21.592272
-34.511803
-80.883835
-115.386833
-138.050827
-150.324753
-154.308533
-152.216827
-146.138184
-137.832245
-128.577133
-119.118622
-109.601044
-99.792488
-89.333527
-78.057800
-66.176506
-54.297157
-43.355354
-34.350292
-28.066513
-24.780008
-24.019535
-24.505306
-24.307907
-21.353893
-14.061131
-1.888510
14.405592
32.880337
51.076969
66.763565
78.603111
86.590019
91.972008
96.938751
103.934265
114.771690
129.808975
147.307373
163.449600
173.033203
170.955551
153.856705
121.369827
76.392876
24.349943
-28.426804
-76.339622
-115.653534
-144.763184
-163.793686
-173.821457
-176.272202
-172.578369
-164.194824
-152.534576
-138.904633
-124.336349
-109.366966
-94.150574
-78.685898
-63.224369
-48.512875
-35.793381
-26.363848
-21.071537
-19.763924
-21.091694
-22.760561
-22.258680
-17.709995
-8.413891
4.893887
20.491241
36.420460
51.187538
64.300034
76.300934
88.621002
102.945816
120.618530
141.899567
165.301117
187.320129
202.802124
206.211761
193.282806
162.697739
116.844650
61.335808
3.463379
-49.807030
-93.423370
-124.918571
-144.214020
-152.818924
-153.004242
-147.173920
-137.579330
-126.085190
-114.009911
-102.042511
-90.294174
-78.528053
-66.572197
-54.595634
-43.220909
-33.291504
-25.477402
-19.931274
-16.077065
-12.752747
-8.619194
-2.549896
5.985390
16.838715
29.256821
42.192734
54.678795
66.286209
77.377800
89.167503
103.308205
121.054817
142.312424
164.870224
184.315140
194.949829
191.441254
170.687195
133.116547
82.893379
26.872223
-27.332253
-73.406250
-107.587616
-129.085876
-139.376709
-141.169617
-137.339554
-130.275909
-121.659790
-112.485229
-103.146561
-93.665100
-83.807953
-73.414749
-62.655090
-52.144806
-42.825180
-35.568939
-30.745270
-27.939926
-26.009354
-23.468826
-18.982712
-11.851898
-2.074905
9.713120
22.618073
35.856522
49.048599
62.498718
77.054260
93.916840
113.988953
137.008881
160.819016
181.238174
192.784454
190.247101
170.517670
134.005356
84.813385
29.704193
-23.812729
-69.449860
-103.426224
-124.793945
-134.805771
-135.939545
-130.958466
-122.297836
-111.837036
-100.847763
-90.054062
-79.667236
-69.543823
-59.398804
-49.128403
-39.090012
-30.074097
-23.071594
-18.745346
-16.906326
-16.411697
-15.439636
-12.106140
-5.214630
5.371231
18.726120
33.298904
47.514984
60.317734
71.598694
82.265732
94.029114
108.791214
127.744217
150.406235
174.038956
193.789200
203.759018
198.753784
176.013824
136.368103
84.246017
26.515366
-29.309952
-76.956177
-112.620941
-135.276443
-146.160385
-147.821121
-143.130646
-134.577652
-123.951416
-112.363754
-100.404526
-88.322510
-76.224579
-64.214828
-52.537354
-41.651001
-32.189789
-24.832932
-19.997803
-17.595474
-16.847794
-16.335495
-14.345047
-9.291809
-0.247253
12.772873
28.752472
46.002029
62.740723
77.768341
91.039520
103.777847
118.060059
135.892151
157.883057
182.270248
204.771408
219.418915
220.288437
203.435150
168.344238
118.251053
59.333611
-0.947327
-55.671211
-99.891739
-131.204651
-149.635101
-156.900650
-155.572754
-148.355347
-137.586884
-125.077339
-112.014824
-99.126015
-86.742508
-74.955513
-63.720329
-53.052788
-43.232010
-34.774117
-28.274002
-24.066284
-21.865227
-20.729958
-19.208458
-15.804077
-9.429699
0.305698
13.059399
27.906071
43.627441
59.047707
73.420120
86.814224
100.285614
115.581848
134.359055
156.935913
181.325882
203.050400
216.230133
215.361938
197.156784
161.608597
111.869255
53.290863
-7.888921
-65.684006
-115.186295
-153.069321
-177.911438
-190.284180
-192.412811
-187.433777
-178.415512
-167.583008
-156.033264
-144.087402
-131.841141
-119.636673
-108.075356
-97.823708
-89.272766
-82.463814
-77.160095
-73.003136
-69.568771
-66.444649
-63.094555
-58.869980
-53.065845
-45.053204
-34.435581
-21.205128
-5.826595
10.838196
27.713394
43.758942
58.282150
71.195465
83.109154
95.245445
109.257889
126.719162
148.485748
173.884583
200.222580
222.889008
236.301147
235.387405
217.098267
181.287277
130.754395
70.458237
6.486336
-55.002426
-108.666191
-150.582199
-178.754517
-193.370560
-196.544250
-191.622986
-182.115814
-170.724777
-158.925232
-147.144348
-135.370483
-123.699471
-112.538658
-102.543175
-94.290085
-88.056854
-83.733627
-80.880829
-78.792847
-76.688599
-73.835587
-69.705383
-64.029099
-56.790226
-48.101105
-38.090752
-26.828316
-14.418743
-0.980202
13.265263
28.035645
43.025150
57.902527
72.329956
86.060684
99.025909
111.637062
124.875237
140.186829
158.949112
181.507446
206.288742
229.455719
245.484970
248.603348
234.501282
201.674347
151.996063
90.306206
23.328140
-41.740349
-98.564163
-142.618942
-171.793823
-186.423462
-188.810196
-182.350128
-170.545364
-156.136993
-140.799500
-125.321922
-110.163673
-95.908501
-83.349243
-73.311035
-66.307770
-62.256275
-60.458065
-59.816322
-59.169434
-57.632244
-54.756790
-50.514496
-45.094341
-38.602573
-30.894348
-21.586273
-10.278778
3.111259
18.158245
33.858303
49.002438
62.552067
74.076920
83.956009
93.365219
103.969452
117.515747
135.251694
157.203003
181.569885
204.563934
220.865952
224.800476
211.962845
180.679138
132.851105
73.642929
10.271919
-49.765961
-100.347061
-137.797668
-161.179169
-171.731873
-172.061188
-165.151718
-153.663712
-139.661926
-124.555969
-109.395935
-95.105759
-82.555901
-72.475731
-65.236809
-60.704758
-58.296127
-57.114166
-56.281433
-55.157623
-53.417603
-50.970505
-47.761719
-43.607498
-38.160706
-30.969101
-21.656525
-10.086472
3.524887
18.560684
34.069092
48.989746
62.357025
73.666107
83.012253
91.205093
99.585037
109.750641
123.134308
140.423264
160.923065
182.112762
199.574722
207.781860
201.442856
177.385727
135.933441
81.297470
20.546494
-38.357651
-88.767181
-126.791260
-151.617416
-164.651337
-168.310028
-164.903015
-156.242172
-143.684082
-128.494049
-112.092957
-95.996277
-81.540161
-69.579132
-60.248093
-53.160645
-47.645508
-43.079742
-39.191498
-35.981171
-33.626678
-32.161591
-31.232300
-30.080322
-27.591583
-22.768280
-14.940491
-4.153320
8.873230
22.949249
36.769409
49.338928
60.190033
69.501709
78.038269
86.990417
97.732880
111.564484
129.181213
150.110199
172.140076
191.245514
202.198181
199.928864
181.237213
146.047913
97.853973
42.805084
-11.965424
-60.218079
-97.991547
-123.857483
-138.460052
-143.531311
-141.042084
-132.866974
-120.649200
-106.089600
-90.872620
-76.552307
-64.155792
-53.980957
-45.615540
-38.293793
-31.439087
-25.027039
-19.626129
-16.036469
-14.676178
-15.067657
-15.809326
-14.913544
-10.618011
-2.087524
10.279266
24.951233
39.883881
53.312988
64.353485
73.325165
81.674561
91.547852
105.053741
123.413391
146.173462
170.737762
192.555603
205.988647
205.863098
189.102051
155.863220
109.654968
56.453339
3.030701
-44.732483
-82.995880
-110.262665
-126.933868
-134.481384
-134.710541
-129.368286
-120.091003
-108.512573
-96.231384
-84.583649
-74.428558
-65.892761
-58.531311
-51.678955
-44.897461
-38.323181
-32.601318
-28.556793
-26.631836
-26.453339
-26.786377
-25.829803
-21.845093
-13.785065
-1.649170
13.505463
29.928314
45.750275
59.539215
70.769653
79.940430
88.564636
98.758484
112.616730
131.266998
153.985504
177.665100
197.088379
206.205902
199.999634
176.322906
136.802032
86.544647
32.547150
-18.287903
-60.887726
-92.788940
-113.985565
-126.044159
-131.024841
-130.805054
-126.756714
-119.905609
-111.159180
-101.427338
-91.662354
-82.653564
-74.823639
-68.129547
-62.229126
-56.732178
-51.487274
-46.740723
-43.019104
-40.750519
-39.852173
-39.554230
-38.479858
-35.062103
-28.063934
-17.068573
-2.694183
13.601959
29.981201
44.761353
57.022430
66.779236
74.972626
83.201447
93.319427
106.919250
124.793213
146.346863
169.229202
189.307037
201.360764
200.420288
183.400970
150.318726
104.593277
52.234177
0.117966
-45.858627
-82.101807
-107.595306
-123.395630
-131.670303
-134.641891
-134.086136
-131.171219
-126.567352
-120.692963
-113.814957
-106.195374
-98.099716
-89.825089
-81.804520
-74.653809
-69.065826
-65.517563
-64.089493
-64.220230
-64.817032
-64.531448
-62.291550
-57.532364
-50.326202
-41.206192
-30.788803
-19.553314
-7.756531
4.447845
16.860153
29.147247
40.964767
52.094055
62.573532
72.783249
83.369370
95.241119
109.476303
127.029343
148.273560
172.276611
196.269516
215.712341
225.143188
219.735016
197.067307
158.141998
107.381622
51.338112
-3.084343
-50.427132
-87.602112
-113.865265
-130.218292
-138.474487
-140.610992
-138.455811
-133.635406
-127.501022
-121.088432
-114.992538
-109.372246
-104.053764
-98.732132
-93.246941
-87.764488
-82.799919
-79.083496
-77.223724
-77.317352
-78.757545
-80.216003
-80.026543
-76.810875
-69.971581
-59.949028
-48.021454
-35.741180
-24.296501
-14.047646
-4.568413
5.073708
15.715004
27.691185
40.736298
54.099724
66.858475
78.414948
88.726334
98.548706
109.329514
122.858109
140.600067
162.771042
187.615021
211.152496
227.823334
231.885208
219.256058
188.951553
143.683746
89.159454
32.393391
-20.122086
-63.922184
-97.084610
-119.879616
-133.850281
-140.944336
-142.915009
-141.171280
-136.799866
-130.710159
-123.646904
-116.193794
-108.711723
-101.415802
-94.480515
-88.202271
-83.016541
-79.392120
-77.626434
-77.582703
-78.639984
-79.709221
-79.455055
-76.713448
-70.836578
-61.929634
-50.793663
-38.669937
-26.777885
-15.824481
-5.837263
3.805389
13.887306
24.993355
37.084892
49.481930
61.178036
71.316635
79.716843
87.103096
95.035225
105.545692
120.461700
140.531143
164.672394
189.586548
210.059921
220.147079
214.813446
191.671982
151.902542
100.175995
43.366520
-11.334597
-58.211700
-94.125793
-118.528610
-132.771530
-139.090271
-139.752747
-136.672501
-131.282883
-124.631927
-117.414085
-110.000618
-102.508003
-94.953484
-87.409843
-80.219582
-73.989517
-69.472031
-67.276855
-67.534584
-69.765755
-72.845146
-75.257767
-75.475189
-72.403503
-65.676682
-55.818146
-44.056824
-31.924307
-20.746914
-11.084655
-2.636797
5.556631
14.618044
25.228943
37.238472
49.810936
61.769901
72.260735
81.196808
89.466499
98.733147
110.964142
127.690536
149.154938
173.654495
197.279343
214.501862
219.562225
208.249786
179.426910
135.681107
82.672806
27.426262
-23.525801
-65.730072
-97.270638
-118.388191
-130.641022
-135.944717
-136.050934
-132.413467
-126.258377
-118.679504
-110.625320
-102.794083
-95.520874
-88.799942
-82.507431
-76.619781
-71.422485
-67.475037
-65.302383
-65.106827
-66.418953
-68.182678
-68.950653
-67.369064
-62.621590
-54.708282
-44.498737
-33.364231
-22.820267
-13.898125
-6.811825
-0.917709
4.990059
12.115334
21.162254
32.079140
44.057991
55.965866
66.780968
75.999275
83.935753
91.749702
101.227493
114.181526
131.680817
153.161072
175.849457
194.974396
204.806244
200.311615
178.905731
141.532043
92.605049
38.754929
-13.025528
-57.215591
-90.800041
-113.330307
-126.187767
-131.468704
-131.242096
-127.169273
-120.525047
-112.402107
-103.747986
-95.293365
-87.373306
-79.910400
-72.681580
-65.617172
-59.102943
-53.965065
-51.070511
-50.818100
-52.783768
-55.648438
-57.609978
-56.994919
-52.806023
-45.122826
-34.945992
-23.799767
-13.107872
-3.707886
4.440598
12.049622
20.095566
29.319580
39.813629
51.065002
62.170456
72.344147
81.319427
89.575867
98.377838
109.411316
124.215134
143.386047
165.771988
188.100296
205.293182
211.640533
202.545319
176.196777
134.437378
82.444748
27.245865
-24.289413
-67.136795
-98.937729
-119.715393
-131.034622
-134.959717
-133.463043
-128.187469
-120.565247
-111.905502
-103.312332
-95.458176
-88.480942
-82.111130
-75.964035
-69.978683
-64.619339
-60.692978
-59.012146
-59.840546
-62.560974
-65.792816
-67.761078
-66.902237
-62.343414
-54.232269
-43.531265
-31.704086
-20.179352
-9.939209
-1.268768
6.272659
13.595779
21.700531
31.274185
42.348251
54.264023
65.906128
76.140442
84.347275
90.842712
96.941101
104.722931
116.408234
133.447830
155.538193
180.126709
202.417969
216.383362
216.398209
199.089676
164.552795
116.541412
61.488113
6.613815
-41.941193
-80.351898
-107.432114
-124.059875
-132.179947
-133.966187
-131.263138
-125.524170
-117.902206
-109.363220
-100.714996
-92.527374
-85.043243
-78.260559
-72.052551
-66.447174
-61.703842
-58.306686
-56.697372
-56.988602
-58.727890
-60.880081
-62.070831
-60.991943
-56.771881
-49.274323
-39.196640
-27.858719
-16.819748
-7.331284
0.140961
6.104752
11.868271
18.920166
28.262466
39.867493
52.698151
65.176819
75.908798
84.290955
90.813187
96.787506
104.040009
114.308273
128.763489
147.414200
168.602020
188.682419
202.532837
204.628723
190.862534
160.077545
114.858658
60.972717
5.730087
-44.093826
-83.870651
-111.770096
-128.351532
-135.563004
-135.756470
-131.074371
-123.288040
-113.946075
-104.323792
-95.445160
-87.891113
-81.724609
-76.721634
-72.608139
-69.362610
-67.360397
-67.083878
-68.867279
-72.509781
-77.189850
-81.610046
-84.390228
-84.472824
-81.417313
-75.526352
-67.701111
-59.124130
-50.882034
-43.611694
-37.333084
-31.489243
-25.309357
-18.123413
-9.678421
-0.281738
9.400253
18.619873
26.929077
34.398117
41.576447
49.333069
58.414368
69.074463
80.940994
93.101089
104.501663
114.459229
123.033112
131.133270
140.290710
152.204346
167.976044
187.393631
208.423187
227.116501
238.279770
236.746948
218.941040
184.184570
135.180878
77.441925
17.889572
-36.870468
-81.980820
-114.969040
-135.687225
-145.645706
-147.217834
-143.001160
-135.333710
-126.047058
-116.457657
-107.353577
-99.145447
-92.007233
-85.985077
-81.151611
-77.689880
-75.938660
-76.230545
-78.667191
-82.927780
-88.191559
-93.174683
-96.551880
-97.248932
-94.755692
-89.279449
-81.495605
-72.342407
-62.679657
-53.046310
-43.633621
-34.401428
-25.201767
-16.027145
-6.974472
1.721512
9.832382
17.385406
24.722748
32.450241
41.196564
51.261307
62.421875
73.951569
84.950409
94.736282
103.212784
111.015030
119.369675
129.815872
143.695374
161.489227
182.137772
202.599106
218.087799
223.079178
212.855942
185.226807
141.500259
86.454926
27.065704
-29.406799
-77.070969
-112.617432
-135.355820
-146.653198
-148.951416
-144.844147
-136.574722
-125.863892
-114.021317
-102.130707
-91.061462
-81.477783
-73.617310
-67.401184
-62.584412
-59.041611
-56.890503
-56.406494
-57.722321
-60.577011
-64.223602
-67.597031
-69.588776
-69.260330
-65.982635
-59.499344
-50.064285
-38.507202
-26.166702
-14.603714
-5.005539
2.233444
7.794510
13.036942
19.467102
28.003677
38.630173
50.466263
62.300980
73.132889
82.596466
91.107834
99.766342
109.988998
123.199844
140.292099
161.063370
183.685989
204.652939
219.147842
222.171341
209.873840
180.911774
137.098740
83.184937
25.678268
-28.657166
-74.418610
-108.483566
-130.141006
-140.611099
-142.200958
-137.521866
-128.981995
-118.515274
-107.601349
-97.283173
-88.144455
-80.389664
-73.960617
-68.690338
-64.495514
-61.462692
-59.795349
-59.490829
-60.208725
-61.215683
-61.494751
-60.054367
-56.231171
-49.893951
-41.426315
-31.546295
-21.037140
-10.466217
-0.033463
10.441711
21.254486
32.621826
44.412659
56.144928
67.177246
77.047424
85.860260
94.523315
104.602814
117.904922
135.656006
157.520111
181.051758
201.791672
214.110031
212.731293
194.401337
159.028412
109.914696
53.014229
-4.561096
-56.213074
-97.228973
-125.525734
-141.515320
-147.449219
-146.418823
-141.305206
-134.202789
-126.215759
-117.695961
-108.701927
-99.364754
-90.050201
-81.332664
-73.809433
-67.992661
-64.206856
-62.476162
-62.466290
-63.437153
-64.396225
-64.192947
-61.932926
-57.225800
-50.100922
-40.935822
-30.143948
-18.023754
-4.766220
9.390934
24.051056
38.605263
52.377975
64.859116
75.890808
85.846420
95.644142
106.621750
120.229324
137.478455
158.199860
180.450974
200.370361
212.759399
212.392807
195.623138
161.833694
113.868240
57.485493
-0.113863
-52.180363
-93.902649
-123.156502
-140.354019
-147.590881
-147.639282
-143.054306
-135.680817
-126.687576
-116.817978
-106.649658
-96.851173
-88.054588
-80.732254
-75.049530
-70.884232
-67.924927
-65.800667
-64.205978
-62.869274
-61.511353
-59.817848
-57.345726
-53.570248
-47.906509
-39.825684
-28.953049
-15.366055
0.360611
17.135338
33.604263
48.588837
61.449913
72.287926
81.998772
91.990723
103.885941
119.012299
137.868622
159.575653
181.448853
199.151550
207.459778
201.625427
179.027954
140.296173
89.563522
33.410423
-20.905304
-67.439346
-102.804344
-126.403091
-139.694366
-145.009171
-144.510330
-139.696594
-131.499329
-120.685486
-108.250832
-95.523575
-83.864410
-74.319107
-67.234238
-62.254295
-58.567863
-55.335495
-52.081207
-48.896133
-46.168701
-44.292557
-43.107803
-41.765076
-38.871368
-33.015778
-23.380905
-10.182739
5.294205
21.071548
35.245972
46.631439
55.262772
62.366180
69.996506
80.421310
95.418655
115.593964
139.888657
165.295532
187.153961
200.034744
199.046387
181.410187
147.530029
101.145782
48.473572
-3.471649
-48.718994
-83.664825
-107.348404
-120.910248
-126.537933
-126.424133
-122.238495
-115.117279
-105.938263
-95.699203
-85.563263
-76.657806
-69.738220
-64.935745
-61.736542
-59.331940
-57.021667
-54.535934
-52.167480
-50.480377
-49.830505
-49.958466
-49.798370
-47.790558
-42.453827
-32.947510
-19.404175
-2.989639
14.501221
31.186020
45.642181
57.350204
66.905304
75.908569
86.565857
101.002853
120.335861
143.784409
168.256454
188.628082
199.004349
194.438110
172.656067
134.993484
86.218338
33.128845
-17.267014
-59.568207
-90.973022
-111.277435
-122.083740
-125.732208
-124.453415
-119.895447
-113.185028
-105.135773
-96.475800
-87.990784
-80.334503
-73.948395
-68.931458
-65.025879
-61.833099
-58.986267
-56.378967
-54.174530
-52.652161
-51.885406
-51.423859
-50.156555
-46.537323
-39.161652
-27.409485
-11.888641
5.697083
23.107544
38.413422
50.671997
60.188812
68.348541
77.141479
88.599365
104.358704
125.019897
149.546448
174.911957
196.199219
207.633362
204.183655
183.382874
146.356873
97.803436
44.590027
-6.253510
-49.329407
-81.868958
-103.714050
-116.425568
-122.232422
-123.220428
-120.929382
-116.418518
-110.483643
-103.834442
-97.159180
-91.053314
-85.845490
-81.572388
-78.043488
-75.016998
-72.302887
-69.887726
-67.793335
-66.072601
-64.626984
-63.110321
-60.930176
-57.193909
-50.934113
-41.370300
-28.245361
-12.117645
5.661255
23.289368
39.105438
52.121246
62.421783
71.137543
80.093109
91.326477
106.534576
126.470734
150.406067
175.731628
198.045349
211.901276
212.206909
195.907562
163.203766
117.819305
65.995392
14.645050
-30.514069
-66.178833
-91.704834
-108.346985
-118.211426
-123.260223
-124.881439
-123.883881
-120.760925
-115.977264
-110.091217
-103.737030
-97.451874
-91.582764
-86.159821
-81.059235
-76.105316
-71.307007
-66.902802
-63.314575
-60.881500
-59.500763
-58.395905
-56.199799
-51.322388
-42.586060
-29.814148
-14.041046
2.792847
18.526154
31.678864
41.974731
50.357727
58.621490
68.759979
82.438293
100.525940
122.790924
147.503754
171.292114
189.427490
196.781067
189.312073
165.603180
127.687531
80.617218
31.141418
-14.322052
-51.283997
-77.987152
-95.083496
-104.749603
-109.518799
-111.486420
-111.887695
-111.159393
-109.273773
-106.061096
-101.478851
-95.786713
-89.441284
-83.021454
-77.106689
-72.189697
-68.582397
-66.342499
-65.238129
-64.786041
-64.306976
-63.112244
-60.600525
-56.328796
-49.994934
-41.459747
-30.787537
-18.329285
-4.728180
9.113098
22.363983
34.389832
45.069427
54.683411
63.920502
73.755829
85.357544
99.931366
118.283722
140.190125
163.782471
185.273499
199.535065
201.433838
187.511688
157.421356
114.354645
64.185303
13.842438
-30.674316
-65.643280
-90.102783
-105.289490
-113.609985
-117.573853
-119.089142
-119.285767
-118.617157
-117.142731
-114.737183
-111.205139
-106.429352
-100.451050
-93.616608
-86.637695
-80.491882
-76.127075
-74.071991
-74.169067
-75.483246
-76.477997
-75.506073
-71.328400
-63.526764
-52.697968
-40.252991
-27.918274
-17.031097
-8.054047
-0.440338
7.090637
15.877228
26.654358
39.198547
52.431061
64.941193
75.723511
84.675049
92.725830
101.589737
113.219330
129.045074
149.244476
172.133484
193.929810
209.368927
213.007202
200.999619
172.603561
130.722458
81.184021
30.899872
-14.092621
-50.115982
-76.252441
-93.653442
-104.447784
-110.675156
-113.836105
-114.840668
-114.195404
-112.325958
-109.504242
-105.901611
-101.544128
-96.449219
-90.785217
-85.051193
-80.083633
-76.804718
-75.796829
-76.943527
-79.222290
-80.919708
-80.251770
-75.950775
-67.785355
-56.613602
-44.003220
-31.636398
-20.700867
-11.514633
-3.505630
4.435089
13.460663
24.239136
36.714417
50.112274
63.283600
75.204742
85.423882
94.320251
103.119041
113.608627
127.562172
145.862503
167.721619
190.188385
208.420227
216.803894
210.679413
187.994064
150.268204
102.311760
50.820061
2.422318
-38.047318
-68.363350
-88.758392
-101.051201
-107.539368
-110.174843
-110.268372
-108.594231
-105.624527
-101.756363
-97.335564
-92.661484
-87.827393
-82.823776
-77.699570
-72.795151
-68.773300
-66.430191
-66.299637
-68.216827
-71.144897
-73.405807
-73.228851
-69.408913
-61.712654
-50.959564
-38.682358
-26.539446
-15.656420
-6.373532
1.850109
10.069530
19.266331
29.856543
41.492378
53.303596
64.361603
74.191513
83.109734
92.210953
103.006660
116.841431
134.298721
154.545715
175.036301
191.670898
199.593567
194.517471
174.212769
139.494644
94.271179
44.561031
-3.201771
-43.884651
-74.683517
-95.297974
-107.247612
-112.866623
-114.419113
-113.596169
-111.315353
-107.972549
-103.701744
-98.646698
-93.091858
-87.454453
-82.215187
-77.791122
-74.503067
-72.528870
-71.908249
-72.493713
-73.835968
-75.289810
-76.057610
-75.347366
-72.551102
-67.337189
-59.749176
-50.189987
-39.476013
-28.633568
-18.772522
-10.622231
-4.299759
0.869446
6.112701
12.757309
21.686890
32.989914
45.886169
59.074646
71.269424
81.695084
90.439560
98.440552
107.278015
118.715454
134.049103
153.531494
175.870605
198.047394
215.637894
223.668091
217.870514
196.077850
159.115372
110.917435
57.603485
5.926315
-38.525253
-72.547134
-95.552246
-108.982773
-115.266708
-116.789810
-115.342300
-112.051193
-107.581573
-102.380371
-96.805984
-91.156616
-85.643234
-80.446487
-75.752441
-71.818939
-68.979492
-67.479065
-67.480194
-68.808212
-70.965332
-73.070053
-73.966080
-72.525269
-67.988098
-60.297424
-50.201447
-39.027740
-28.276337
-19.063080
-11.774628
-5.989349
-0.653809
5.427521
13.165680
22.836639
34.007416
45.728027
56.885864
66.692749
75.020599
82.455902
90.191254
99.732819
112.480682
129.234039
149.731567
172.159973
192.943268
207.191223
209.794128
197.006744
167.934540
125.258575
74.642731
23.076111
-23.129791
-59.913971
-86.008972
-102.369843
-111.063141
-114.203339
-113.404022
-109.735992
-104.033112
-97.080139
-89.722870
-82.696350
-76.403595
-70.913666
-66.042786
-61.667511
-57.904388
-55.189789
-54.118439
-55.088867
-57.933014
-61.744720
-65.042633
-66.186981
-63.946686
-57.922516
-48.632660
-37.293396
-25.434540
-14.399445
-4.950714
2.837952
9.554230
16.161377
23.576294
32.305511
42.273163
52.816437
63.061584
72.279877
80.231079
87.347656
94.741180
103.939117
116.421967
132.910797
152.686615
173.073730
189.615662
197.053009
190.909424
169.065582
132.717743
86.142975
35.516876
-12.854370
-54.090698
-85.514526
-106.666412
-118.604889
-123.165619
-122.206146
-117.340454
-109.870850
-100.932587
-91.545380
-82.572083
-74.559540
-67.649231
-61.692627
-56.525665
-52.214752
-49.180359
-47.994446
-48.924286
-51.570801
-54.770050
-56.903198
-56.515289
-52.797546
-45.927856
-36.876984
-27.050262
-17.678314
-9.389893
-2.083893
5.014618
12.871185
22.194641
33.013916
44.647980
56.058838
66.232330
74.726501
81.851715
88.732483
97.008057
108.457672
124.307251
144.473572
166.882812
187.348694
200.241364
200.025635
183.256256
149.903015
103.768188
51.354462
-0.114624
-44.720367
-79.081085
-102.471802
-116.113983
-122.094757
-122.566895
-119.287018
-113.629883
-106.644775
-99.146179
-91.686279
-84.561676
-77.892334
-71.687225
-66.020935
-61.072052
-57.184509
-54.688141
-53.782471
-54.367554
-55.989258
-57.914429
-59.246735
-59.177246
-57.126770
-52.774078
-46.176575
-37.682007
-27.966705
-17.871643
-8.246216
0.372772
7.950745
15.010468
22.392456
30.904388
40.916443
52.217133
64.080994
75.605713
86.071442
95.219971
103.421387
111.589355
121.070282
133.248627
149.025543
168.221924
188.945129
207.545227
219.075500
218.592499
202.651611
170.622681
125.178009
71.802673
17.228394
-32.293365
-72.392029
-101.249634
-119.284882
-128.257782
-130.425507
-127.834137
-122.146790
-114.631836
-106.291016
-97.920349
-90.065613
-83.068115
-77.113434
-72.384613
-69.113007
-67.550598
-67.783081
-69.604767
-72.399567
-75.233398
-77.115448
-77.241364
-75.184479
-70.905975
-64.753143
-57.204041
-48.755432
-39.812683
-30.741455
-21.858246
-13.489410
-5.934235
0.691101
6.591125
12.296173
18.481873
25.728119
34.292114
43.975159
54.246124
64.507935
74.315735
83.496094
92.296417
101.322327
111.492126
123.941681
139.605255
158.679138
179.891083
200.148987
214.798706
218.679413
207.653107
180.154266
137.954956
85.806671
30.149628
-22.640503
-67.691528
-102.415466
-126.361694
-140.560822
-146.713287
-146.678680
-142.164856
-134.667664
-125.533264
-115.888794
-106.522095
-97.795441
-89.734314
-82.139191
-74.926361
-68.371826
-63.138794
-60.063538
-59.695557
-61.815094
-65.300079
-68.329620
-69.023804
-66.135742
-59.560791
-50.222198
-39.691925
-29.434723
-20.278503
-12.130341
-4.249878
4.254150
14.031494
25.106598
36.934357
48.631012
59.350342
68.589233
76.434204
83.691162
91.735413
102.227356
116.537872
135.067169
156.623474
178.173279
195.107635
202.254242
195.274780
172.031830
133.507599
83.750061
28.942566
-24.265396
-70.253235
-105.524094
-128.997986
-141.564835
-145.310471
-142.695831
-136.006805
-127.042526
-117.052307
-106.861221
-96.872452
-87.245590
-78.027420
-69.369370
-61.543671
-55.034027
-50.292755
-47.581467
-46.756836
-47.264862
-48.180252
-48.441315
-47.096848
-43.571808
-37.821869
-30.236588
-21.431320
-11.922775
-1.934586
8.541168
19.601288
31.157928
42.842117
54.139160
64.680862
74.525330
84.334534
95.238327
108.632034
125.545563
146.106812
168.898041
190.677643
206.720230
211.840393
201.902634
175.457794
134.422501
83.770737
30.175385
-19.895966
-61.734695
-93.094223
-113.920853
-125.569641
-129.886642
-128.672165
-123.457153
-115.529709
-106.005341
-95.808136
-85.669044
-76.129005
-67.538383
-60.126511
-54.042587
-49.371681
-46.126129
-44.247444
-43.561630
-43.745964
-44.241707
-44.240768
-42.776764
-38.879593
-31.850319
-21.449287
-8.143288
7.005714
22.547302
37.038246
49.498512
59.830006
68.903549
78.345680
90.102791
105.734329
125.778687
149.169876
173.056229
193.129318
204.377121
202.354752
184.491852
151.011063
105.164558
52.484436
-0.620259
-48.334259
-86.693192
-114.017700
-130.588058
-138.033096
-138.489197
-134.019958
-126.303116
-116.579536
-105.880493
-95.069572
-85.043167
-76.510574
-69.885864
-65.120300
-61.730228
-59.151543
-56.946625
-55.045574
-53.601944
-52.618286
-51.528030
-49.246407
-44.500977
-36.390388
-24.889862
-10.919792
4.019356
18.381218
31.112610
41.908806
51.187134
60.078148
70.186111
83.268906
100.750443
122.834694
147.855225
171.924072
189.609314
195.315338
185.015762
157.719177
115.904968
64.943192
11.522720
-38.059769
-79.234161
-109.693298
-129.228424
-138.967667
-140.633728
-136.165695
-127.381927
-116.040314
-103.807053
-92.069122
-81.813278
-73.463531
-66.919601
-61.705887
-57.289703
-53.386353
-50.084778
-47.712906
-46.545685
-46.438751
-46.569809
-45.460526
-41.437576
-33.241135
-20.604630
-4.445450
13.387543
30.789673
46.174728
58.963547
69.781937
80.245956
92.381119
108.069107
128.095276
151.448303
174.969330
193.688721
201.935272
195.079742
171.125061
131.556305
81.085724
26.318451
-26.067780
-70.817627
-104.978882
-127.851776
-140.373657
-144.281982
-141.459625
-133.662018
-122.569183
-109.902588
-97.375244
-86.520111
-78.223877
-72.499481
-68.495209
-65.047607
-61.338531
-57.317566
-53.752472
-51.611603
-51.283630
-52.105621
-52.368866
-49.930115
-43.090637
-31.206055
-15.030914
3.470825
21.816223
37.776459
50.212677
59.506195
67.509247
77.007599
90.706726
110.014465
134.074982
159.515900
180.975006
192.440521
189.071838
168.650848
132.458618
84.915009
32.446381
-18.309875
-61.984894
-95.501007
-118.161713
-130.913391
-135.603699
-134.250427
-128.661316
-120.376068
-110.768402
-100.986328
-91.951935
-84.176422
-77.700836
-72.198181
-67.182312
-62.281097
-57.541809
-53.464966
-50.759949
-49.920868
-50.735992
-51.988159
-51.658630
-47.559631
-38.257599
-23.767731
-5.703186
13.271088
30.498444
44.396729
55.049530
64.128723
74.242126
87.933167
106.702820
130.214264
156.004639
179.631134
195.503052
198.348480
184.735840
154.381165
110.451416
58.823456
6.465088
-40.442444
-77.860138
-104.353851
-120.647797
-128.649231
-130.510284
-127.941162
-122.189392
-114.202820
-104.928314
-95.380066
-86.514343
-78.951599
-72.769531
-67.626892
-63.047028
-58.792084
-55.039093
-52.260773
-50.848907
-50.666992
-50.805603
-49.758545
-45.848816
-37.856018
-25.530823
-9.820404
7.366791
23.737732
37.420776
47.738495
55.549957
63.038177
72.967163
87.687866
108.052002
132.787506
158.372314
179.632263
190.907410
187.618164
167.688751
132.463745
86.520447
36.419373
-11.159332
-51.180908
-81.276459
-101.573303
-113.737854
-119.853119
-121.507233
-119.656525
-114.963989
-108.058807
-99.827667
-91.239624
-83.118317
-75.877808
-69.577728
-63.977142
-58.873596
-54.283722
-50.540802
-48.048737
-47.046295
-47.147095
-47.211517
-45.565399
-40.540558
-31.189392
-17.822998
-2.005920
13.983521
28.000641
38.911011
46.945984
53.575287
60.996155
71.380402
86.264954
105.999176
129.304565
153.064056
172.605255
182.561523
178.357239
157.885406
122.525055
77.049408
28.315826
-16.916748
-53.865082
-80.690948
-98.137756
-108.414062
-113.720154
-115.534790
-114.542969
-111.068268
-105.588135
-98.865112
-91.718628
-84.775360
-78.264893
-72.127930
-66.234406
-60.660522
-55.722931
-51.858093
-49.490906
-48.727448
-49.159058
-49.818451
-49.240082
-45.850403
-38.517365
-27.038940
-12.417572
3.437439
18.328217
30.637115
39.940430
47.216217
54.446747
63.917755
77.554138
96.150055
118.945587
143.378815
165.316071
179.785492
182.212677
169.812134
142.713043
104.090057
59.396545
14.797455
-24.506378
-55.420227
-77.306824
-91.371216
-99.728760
-104.471008
-107.016846
-108.029541
-107.615448
-105.700226
-102.350739
-97.882874
-92.746582
-87.393860
-82.086121
-76.928497
-71.990173
-67.386139
-63.260864
-59.785950
-56.972534
-54.557343
-52.038910
-48.746124
-43.989807
-37.234589
-28.291931
-17.404358
-5.223969
7.272858
19.071045
29.420227
38.063629
45.415497
52.441010
60.473694
70.963608
85.044174
103.046249
124.030411
145.433777
163.245850
172.820251
170.147476
153.238144
123.028564
83.351639
39.936600
-1.251755
-35.637924
-60.991409
-77.531357
-87.100723
-92.086670
-94.497421
-95.487946
-95.523087
-94.680084
-93.023911
-90.710556
-87.840469
-84.439713
-80.421860
-75.801514
-70.862778
-66.213089
-62.607841
-60.607239
-60.314667
-61.188934
-62.239578
-62.252808
-60.170479
-55.401947
-47.997879
-38.639801
-28.471588
-18.711136
-10.235191
-3.211899
2.852825
8.914680
15.937967
24.418100
34.265827
44.861622
55.354984
65.039505
73.647675
81.475052
89.431068
98.804031
110.836800
126.135094
144.025299
162.253693
177.168793
184.574707
180.907593
164.424759
135.910187
98.609665
57.356506
17.297485
-17.391670
-44.336960
-63.106544
-74.772827
-81.076134
-83.739426
-84.090736
-82.933525
-80.754898
-77.894035
-74.586212
-70.981987
-67.115082
-62.959175
-58.593079
-54.330185
-50.682236
-48.250427
-47.347687
-47.835632
-48.978912
-49.658752
-48.653687
-45.122040
-38.936646
-30.654709
-21.341309
-12.085205
-3.515198
4.371094
12.053741
20.096802
28.754990
37.780792
46.624985
54.669174
61.585739
67.540848
73.184494
79.599823
88.108154
99.881927
115.251404
133.099884
150.509949
163.139954
166.423996
157.147751
134.755783
101.701233
62.821487
23.767563
-10.557846
-37.172760
-55.269501
-65.820831
-70.713776
-71.932465
-70.952118
-68.635742
-65.415619
-61.476105
-57.075745
-52.581024
-48.374969
-44.794098
-42.014923
-40.189728
-39.457611
-39.917633
-41.471436
-43.633514
-45.638123
-46.578583
-45.760559
-42.903992
-38.047180
-31.367096
-23.053101
-13.242157
-2.200745
9.538971
21.198547
32.010437
41.448547
49.444183
56.440735
63.193939
70.687531
79.903473
91.709747
106.559662
123.959686
142.133392
157.878662
167.116943
165.980713
152.163513
125.887482
90.102661
49.735504
10.210602
-24.049194
-50.590851
-69.070831
-80.684784
-87.156281
-90.022736
-90.343414
-88.732574
-85.608826
-81.337067
-76.300598
-70.842834
-65.301819
-60.107971
-55.795441
-53.003845
-52.218658
-53.541626
-56.594238
-60.470154
-63.972504
-65.844208
-65.084106
-61.189667
-54.310760
-45.229828
-35.092102
-25.021942
-15.697052
-7.117767
1.277771
10.210480
20.120941
30.864655
41.841736
52.329803
61.820160
70.434723
78.907776
88.457703
100.393005
115.680664
134.247803
154.507721
173.152161
185.670715
187.530365
175.664642
149.696106
112.325104
68.621613
24.481171
-14.976715
-46.594025
-69.475189
-84.461487
-93.292480
-97.702209
-98.994965
-97.984222
-95.204376
-91.113281
-86.175537
-80.838104
-75.405670
-70.093170
-65.161804
-61.026855
-58.275970
-57.398987
-58.393372
-60.520905
-62.441833
-62.626953
-60.026154
-54.402710
-46.410278
-37.156616
-27.769745
-18.941345
-10.795959
-2.990936
5.050446
13.898346
23.812622
34.654053
45.845612
56.616180
66.297577
74.755005
82.576141
91.088043
101.880951
116.223877
134.424255
155.143677
175.247681
190.208801
195.189911
186.476929
162.830658
126.178955
81.149231
33.784058
-10.192505
-46.756683
-74.171692
-92.706879
-103.881927
-109.617767
-111.626312
-111.224487
-109.358032
-106.630096
-103.473022
-100.149231
-96.784485
-93.432709
-90.037933
-86.575165
-83.128967
-79.984955
-77.587524
-76.284393
-76.113922
-76.557526
-76.597443
-75.014740
-70.878052
-63.898102
-54.531311
-43.792053
-32.897491
-22.832581
-14.074799
-6.558411
0.272888
7.225647
15.036011
24.139832
34.407532
45.199341
55.684692
65.095642
73.165649
80.300507
87.645660
96.760712
109.195953
125.846466
146.204254
167.954742
186.999908
198.292694
197.203491
181.059570
150.117615
107.575745
58.780396
9.645691
-34.682922
-70.829590
-97.427277
-114.776825
-124.236725
-127.581299
-126.430847
-122.099854
-115.617981
-107.802246
-99.484711
-91.455627
-84.385864
-78.656403
-74.311829
-71.136505
-68.869263
-67.447449
-66.876831
-67.111725
-67.915009
-68.640686
-68.370789
-66.149902
-61.313660
-53.754578
-44.044800
-33.282837
-22.768890
-13.547272
-5.891479
0.729706
7.477661
15.595367
25.824219
37.981384
51.100555
63.854828
75.143524
84.659332
93.012848
101.635986
112.317749
126.569733
144.800232
165.702057
185.966827
200.766296
204.876678
194.315125
167.673523
126.956390
77.098175
24.657593
-23.895355
-63.752502
-92.593536
-110.495148
-119.183289
-121.110229
-118.601135
-113.422791
-106.764191
-99.372284
-91.778870
-84.401489
-77.487640
-71.186859
-65.604950
-60.951721
-57.585388
-55.902313
-56.062836
-57.677673
-59.835846
-61.322845
-60.986816
-58.146057
-52.624054
-44.726837
-34.982147
-23.982635
-12.267242
-0.273865
11.610992
23.097900
33.913452
43.911285
53.038727
61.438904
69.667267
78.652924
89.555023
103.459106
120.849396
141.030853
161.853180
179.724243
190.147552
188.805603
172.849396
142.071869
99.374847
50.237427
1.212799
-41.838989
-75.200012
-97.805756
-110.729553
-116.159302
-116.338501
-113.014221
-107.345337
-100.068390
-91.736420
-82.792084
-73.693237
-64.928680
-57.101440
-50.887115
-46.816010
-45.040527
-45.255310
-46.670044
-48.391022
-49.571564
-49.576843
-47.998718
-44.579163
-39.192596
-31.861633
-22.775940
-12.289185
-0.876495
10.930527
22.605286
33.667221
43.787003
52.903183
61.355499
69.837173
79.377930
91.096725
105.927811
124.118942
144.787170
165.448578
182.110306
189.887375
184.389130
163.329361
127.664658
81.637527
31.672287
-15.594055
-55.141525
-84.595261
-104.036774
-115.102036
-119.768661
-119.651505
-115.803818
-108.997284
-100.086945
-90.149582
-80.415024
-71.895157
-65.126862
-60.072739
-56.240814
-53.063446
-50.218033
-47.808304
-46.195892
-45.647675
-45.923340
-46.181290
-45.069977
-41.208115
-33.655792
-22.262589
-7.795700
8.253876
24.099640
38.148590
49.504547
58.331192
65.807220
73.819107
84.346481
98.828278
117.528259
139.186783
160.946808
178.586853
187.352707
183.062943
163.531067
129.566742
85.075958
36.070770
-11.051620
-51.247223
-81.889343
-102.698257
-114.931503
-120.285233
-120.210449
-115.831619
-108.177216
-98.447159
-88.074692
-78.401436
-70.367371
-64.321716
-59.987801
-56.751282
-53.983185
-51.351799
-48.898315
-46.957291
-45.896576
-45.599907
-45.358795
-43.858551
-39.588074
-31.467476
-19.284958
-3.926720
12.863503
29.045929
42.994431
53.964622
62.355293
69.515938
77.389580
87.940887
102.455070
121.045677
142.154480
162.478821
177.434387
182.132706
172.799377
148.077362
109.799469
62.760380
13.495190
-31.638706
-68.091911
-93.993050
-110.002518
-118.255936
-121.125977
-120.375793
-116.966095
-111.390854
-104.070168
-95.626068
-86.872406
-78.617569
-71.528267
-66.030800
-62.263939
-60.068291
-58.934975
-58.235809
-57.363846
-56.004322
-54.071846
-51.460648
-47.745079
-42.155346
-33.808537
-22.295418
-8.056210
7.552357
22.750320
36.024387
46.813873
55.631729
63.771381
72.954651
84.778709
100.403984
120.160080
143.186249
167.051178
187.734665
200.275894
199.930115
183.775497
151.829926
107.472183
56.662971
6.254086
-37.896385
-72.298157
-96.161346
-110.805908
-118.454193
-121.130569
-120.231155
-116.475342
-110.412354
-102.770248
-94.598816
-87.044357
-81.031754
-76.940155
-74.598068
-73.412842
-72.630760
-71.601608
-69.995865
-67.780289
-65.138420
-62.235573
-58.866760
-54.443825
-48.085121
-38.993439
-26.938362
-12.487862
3.042236
18.033127
31.142296
41.821465
50.481651
58.328110
67.078743
78.447693
93.704201
113.289238
136.403320
160.688629
182.245865
196.149704
197.572662
183.268280
152.805847
109.158043
58.178902
6.954178
-38.174934
-73.188820
-96.999741
-110.948303
-117.591690
-119.450829
-118.295685
-115.046532
-110.198311
-104.221466
-97.689133
-91.283134
-85.553947
-80.786606
-76.969307
-73.957977
-71.583542
-69.692139
-68.198357
-66.964554
-65.795799
-64.391525
-62.258560
-58.796188
-53.326759
-45.270699
-34.366837
-20.834404
-5.429604
10.641182
26.036438
39.665512
51.052811
60.475807
69.017891
78.229309
89.654663
104.458237
122.952805
144.181000
165.739471
183.834320
193.803604
191.269775
173.556244
140.895004
96.816063
47.369202
-0.663406
-41.771622
-72.996552
-94.165787
-106.904831
-113.387909
-115.206192
-113.170944
-107.740860
-99.564972
-89.713943
-79.582870
-70.453247
-63.049622
-57.517838
-53.495239
-50.517853
-48.211823
-46.436676
-45.211960
-44.611084
-44.543930
-44.537476
-43.727829
-40.980606
-35.184067
-25.692810
-12.777466
2.338928
17.792664
31.654419
42.696182
50.858078
57.295959
64.088211
73.546432
87.490555
106.525497
129.585556
153.723053
174.520615
186.863083
186.236084
170.130783
139.004135
96.427032
48.244751
1.016861
-39.803207
-71.121353
-92.427505
-105.163757
-111.529816
-113.461594
-112.206879
-108.359604
-102.369751
-94.882782
-86.748642
-78.849579
-71.833817
-65.959274
-61.125015
-57.091675
-53.667969
-50.848328
-48.816650
-47.745987
-47.590881
-47.889465
-47.530396
-45.028168
-38.969543
-28.649643
-14.486389
1.998901
18.688171
33.645142
45.795563
55.248962
63.166168
71.329239
81.695206
95.820938
114.287247
136.215134
158.922989
178.106216
188.660767
186.129272
168.169525
135.590485
92.420242
44.772812
-0.793686
-39.130722
-67.588165
-86.150772
-96.729538
-101.915634
-103.881256
-103.913528
-102.491852
-99.676422
-95.598434
-90.601532
-85.097122
-79.371887
-73.519714
-67.562759
-61.642960
-56.169571
-51.707260
-48.822830
-47.761124
-48.246658
-49.452240
-50.044220
-48.407913
-43.104675
-33.445206
-19.875259
-3.984406
11.922760
25.812347
36.625961
44.690460
51.498123
59.060791
69.312973
83.630493
102.437653
124.927124
148.634338
169.520966
182.513214
182.869171
167.802948
137.689209
96.255676
49.494110
3.845154
-35.550140
-65.940613
-87.009064
-100.168518
-107.549316
-111.163971
-112.431427
-112.113678
-110.462738
-107.452545
-103.111206
-97.657440
-91.466370
-85.115417
-79.169495
-74.126984
-70.321442
-67.866028
-66.555939
-65.969543
-65.541565
-64.660767
-62.768738
-59.398743
-54.081177
-46.476349
-36.502777
-24.486206
-11.150513
2.514771
15.627747
27.648773
38.475769
48.385773
57.870972
67.551941
78.301041
91.244202
107.476257
127.468536
150.297302
173.081207
191.234192
199.549194
193.766296
172.181320
136.454895
91.335129
43.339981
-1.165863
-37.642975
-64.276215
-81.732880
-92.223495
-98.204788
-101.534241
-103.239975
-103.675507
-102.991669
-101.316406
-98.701355
-95.175156
-90.703796
-85.450928
-79.891403
-74.898315
-71.363083
-69.850693
-70.278076
-71.867767
-73.338135
-73.337570
-70.760849
-65.151840
-56.721939
-46.299667
-34.931763
-23.539658
-12.529099
-1.720093
9.319656
20.915344
32.965668
44.901947
56.132782
66.396454
76.099762
86.291077
98.287949
113.278717
131.729355
152.925049
174.646164
193.176300
203.931213
202.555435
186.465179
155.859634
114.019073
66.483948
19.431458
-22.021042
-54.950012
-78.749802
-94.558746
-104.213150
-109.469696
-111.601303
-111.349487
-109.193436
-105.567810
-100.972107
-95.897308
-90.859024
-86.163834
-82.023254
-78.626892
-76.244598
-75.275528
-75.945297
-78.095383
-80.925064
-83.173111
-83.417709
-80.641495
-74.609512
-65.940781
-55.807343
-45.491562
-35.880890
-27.153656
-18.880737
-10.192169
-0.274826
11.218018
23.944580
36.979691
49.135559
59.506790
67.905457
74.989105
82.169586
91.211746
103.713120
120.648956
141.577316
164.221039
184.465683
197.043060
197.001831
181.393799
150.507233
107.989937
59.791458
12.351440
-29.174797
-61.889694
-85.223099
-100.192528
-108.566162
-112.125755
-112.423347
-110.648735
-107.732277
-104.354248
-100.920067
-97.500786
-93.946930
-89.920738
-85.256638
-80.135620
-75.226891
-71.422485
-69.381577
-69.038857
-69.468216
-69.168182
-66.683418
-61.349411
-53.478451
-44.130741
-34.501671
-25.387966
-16.937805
-8.744663
-0.299093
8.733360
18.327150
28.147148
37.732227
46.713432
54.981396
62.942764
71.493774
81.916481
95.461372
112.785744
133.330872
154.908691
173.807465
185.428619
185.432785
171.110748
142.456085
102.506851
56.629009
11.057228
-28.874565
-59.974182
-81.484985
-94.556694
-101.225449
-103.487595
-102.875107
-100.403870
-96.769203
-92.397682
-87.523369
-82.213699
-76.448814
-70.382088
-64.436104
-59.304733
-55.692650
-54.010811
-54.158226
-55.449776
-56.833527
-57.180031
-55.586700
-51.597824
-45.332550
-37.439575
-28.824829
-20.326508
-12.363724
-4.811539
2.886734
11.389374
21.040329
31.681335
42.678345
53.215210
62.732834
71.240875
79.445099
88.668732
100.369064
115.501617
133.821869
153.431076
170.752747
181.241516
180.583740
166.132751
137.896378
98.799835
53.940277
9.212967
-30.238953
-61.193878
-82.648972
-95.453690
-101.458054
-102.634979
-100.580276
-96.376785
-90.764496
-84.342957
-77.649811
-71.186035
-65.252502
-60.013580
-55.543762
-51.912720
-49.244385
-47.561188
-46.730286
-46.348175
-45.837677
-44.584045
-42.149506
-38.366180
-33.276459
-27.046509
-19.901733
-11.989075
-3.441528
5.622192
15.114105
24.838837
34.594360
44.072784
53.050049
61.552856
70.022247
79.398956
90.841583
105.328461
122.982147
142.475189
160.902100
174.034912
177.434174
167.754700
144.044800
108.363251
65.329926
20.799896
-19.795471
-52.789459
-76.797516
-92.248596
-100.520142
-103.119446
-101.255981
-95.911224
-88.110565
-78.968872
-69.613495
-60.957367
-53.476471
-47.192657
-41.853027
-37.157410
-32.953247
-29.325165
-26.511536
-24.775757
-24.165405
-24.262512
-24.150482
-22.650787
-18.662994
-11.668793
-1.941406
9.496094
21.291870
32.231567
41.667999
49.602600
56.631195
63.807678
72.366608
83.511719
98.063538
115.895538
135.453949
153.579620
165.900696
167.975342
156.694366
131.546387
94.965912
51.758514
7.611359
-32.411957
-64.988708
-88.797394
-104.090027
-111.929840
-113.571625
-110.249359
-103.176239
-93.697693
-83.264893
-73.206512
-64.449524
-57.277802
-51.419861
-46.326172
-41.544769
-37.026886
-33.142120
-30.481628
-29.413757
-29.723816
-30.524414
-30.372925
-27.772583
-21.722260
-12.097015
0.345062
14.207550
27.914764
40.248138
50.676666
59.447296
67.559296
76.466248
87.730225
102.345551
120.168213
139.394775
156.497253
166.902924
166.234528
151.819885
123.783203
85.192932
41.251007
-2.247253
-40.442871
-70.350830
-91.072327
-103.219818
-108.218903
-107.698975
-103.175049
-96.000763
-87.458618
-78.693512
-70.542664
-63.432831
-57.297699
-51.680420
-46.073547
-40.256836
-34.511993
-29.622498
-26.448853
-25.479919
-26.355347
-27.840576
-28.157806
-25.561798
-19.059570
-8.740082
4.225586
18.057159
31.037659
42.107452
51.268280
59.571136
68.771729
80.721191
96.667908
116.477081
138.258911
158.357605
171.985657
174.464447
162.720215
136.313873
97.911499
52.607910
6.485107
-35.019348
-68.309479
-91.980316
-106.338165
-112.668152
-112.523468
-107.509827
-99.233154
-89.413727
-79.626129
-70.985321
