1428498493.000000
64.000000
-0.000000
-0.000000
-0.000000
-0.000000
-0.000000
-0.000000
-0.000000
-0.000000
-0.000000
-0.002232
0.004517
0.011266
0.011384
-0.001186
-0.025910
-0.050634
-0.051363
0.001493
0.130243
0.355628
0.659125
1.009510
1.370983
1.719736
2.055110
2.399450
2.786664
3.239907
3.796012
4.418684
5.059294
5.664410
6.202154
6.680880
7.149598
7.678234
8.310739
9.143657
10.089731
11.041313
11.884212
12.564316
13.135630
13.760044
14.652320
15.962056
17.914442
20.317299
22.903854
25.379471
27.578028
29.572460
31.675173
34.317799
37.813618
42.541233
48.146301
54.104755
59.833092
64.972374
69.582932
74.143532
79.344986
85.707260
93.761932
102.997787
112.617569
121.730339
129.766022
136.751022
143.303436
150.746231
157.773560
166.643234
177.947983
191.791016
206.968079
220.565918
228.246445
225.361542
208.531982
176.870239
132.762222
80.049973
23.069275
-34.943390
-92.436951
-149.156952
-205.227722
-260.369629
-313.741333
-363.873962
-409.833527
-450.907745
-486.502441
-515.738647
-537.227417
-549.219971
-549.961304
-538.367004
-514.205505
-478.674011
-433.879517
-382.451263
-327.021057
-269.841858
-212.633789
-156.659393
-102.952515
-52.374084
-5.905731
35.578552
71.423035
101.348267
125.497467
144.377411
158.695679
169.160233
176.393890
180.794479
182.645966
182.178665
179.665604
175.452362
169.943359
163.549789
156.611099
149.374100
141.974472
134.485016
126.935074
119.371117
111.853127
104.449707
97.232002
90.248947
83.533730
77.098221
70.957748
65.109200
59.567829
54.343090
49.441391
44.869503
40.624596
36.709610
33.118443
29.860312
26.915705
24.295753
22.001846
20.033022
18.389803
17.062315
16.045115
15.325400
14.898134
14.715514
14.772837
15.053761
15.543970
16.224749
17.076872
18.091389
19.255085
20.572622
21.964586
23.450268
25.018604
26.655386
28.379585
30.186104
32.075634
34.044342
36.103699
38.088169
39.953106
41.547791
42.658653
43.008259
42.300961
40.241898
36.574337
31.155151
23.688499
14.253185
2.980663
-9.895748
-24.034889
-39.059486
-54.525620
-69.980774
-84.275276
-97.340996
-108.889755
-118.757660
-126.806602
-132.918945
-136.946762
-138.729904
-138.528732
-135.880356
-131.089325
-123.592697
-113.156052
-99.820572
-83.877594
-65.876259
-46.557728
-26.806770
-7.060310
11.281040
27.409386
40.771423
51.118340
58.473846
63.073879
65.297234
65.658829
64.635063
62.532188
59.807865
56.784225
53.670319
50.610214
47.659271
44.834858
42.093540
39.447716
36.754601
34.091984
31.503895
29.035746
26.729332
24.582813
22.590530
20.676058
18.792042
16.838661
14.852318
12.906860
11.102377
9.530680
8.233313
7.167070
6.179359
5.100752
3.785358
2.234186
0.586073
-0.911301
-2.021923
-2.631540
-2.831751
-2.934673
-3.314743
-4.269953
-5.842354
-7.754427
-9.529440
-10.704206
-11.027218
-10.650763
-10.100252
-10.025654
-10.924339
-12.862576
-15.431450
-17.856838
-19.477379
-19.944153
-19.397717
-18.454041
-17.819088
-18.089252
-19.689884
-22.839550
-27.438747
-32.742577
-37.078743
-38.079048
-33.522354
-22.424473
-5.945854
12.769642
29.656452
41.411480
46.654564
46.274590
42.506512
37.652596
33.098179
29.151337
25.531719
22.076607
19.069061
17.058884
16.394257
16.863613
17.731045
18.187847
17.606613
16.044865
14.129074
12.740005
12.624702
13.945412
16.231068
18.492767
19.760555
19.419811
17.700832
15.413574
13.640137
13.175758
14.188946
16.200737
18.365414
20.209492
21.631451
23.289394
26.068573
30.637608
37.108292
45.090225
53.845207
62.386955
69.343948
72.821388
70.788681
61.781418
45.947590
25.539503
4.412584
-13.330957
-25.016817
-30.327116
-31.113663
-30.106844
-29.503962
-30.047142
-31.192415
-32.105377
-32.335495
-32.319942
-32.943855
-34.846252
-37.907433
-41.249287
-43.707958
-44.226589
-42.559883
-39.251316
-35.514618
-32.659706
-31.587660
-32.400299
-34.425537
-36.482574
-37.478210
-36.943207
-35.086258
-32.769917
-31.045090
-30.610670
-31.731646
-34.297020
-38.042763
-42.386391
-46.212791
-47.628113
-44.408791
-34.829559
-18.759895
1.772602
23.024893
40.931137
52.675468
57.711319
57.555225
54.500710
50.431763
46.218555
41.785683
36.950775
31.994850
27.741814
25.044792
24.248989
24.590170
24.857025
23.907877
21.168434
16.957703
12.226788
8.071760
5.248384
3.934362
3.450396
2.801037
1.131493
-2.072531
-6.829737
-12.741966
-19.275270
-26.324310
-32.276367
-36.902668
-40.680992
-44.423332
-48.931793
-54.452736
-60.497623
-65.904549
-69.212296
-69.097618
-65.054443
-57.112305
-45.720947
-31.673903
-15.940929
0.351847
16.018333
29.917160
41.208549
49.270729
53.977882
55.682613
54.955524
52.491856
48.995235
45.048401
41.182510
37.828644
35.163311
33.274277
32.186012
31.884892
32.145767
32.624325
32.816746
32.289604
30.839228
28.598083
26.045553
23.804457
22.311440
21.630894
21.431971
21.224466
20.646629
19.580383
18.012493
16.026733
13.618847
10.724773
6.915398
1.778950
-4.807995
-12.389473
-20.058594
-26.718803
-31.380421
-33.403042
-32.504776
-29.024479
-23.547806
-16.682457
-8.857094
-0.361443
8.187721
16.038895
22.470413
27.090820
29.206482
28.335236
24.375626
17.953758
10.315002
2.393539
-4.751869
-9.881432
-11.341408
-9.415459
-5.318123
-0.632828
3.712921
7.598381
10.203400
11.346489
12.474915
17.333725
26.843376
39.925232
53.162827
62.060852
61.985046
47.753296
18.239197
-20.835083
-56.508865
-78.846817
-82.073669
-66.586548
-37.212158
-1.700043
28.893280
45.838669
46.196533
34.507645
12.465927
-18.815582
-58.495178
-103.601212
-131.252228
-124.692871
-87.935043
-56.509277
-34.958084
-24.322098
-18.635086
-18.149368
-22.667282
-30.915497
-43.819977
-61.704758
-82.091522
-98.055634
-107.638077
-110.957962
-109.792328
-105.148239
-97.638107
-89.836823
-83.770599
-78.825500
-70.486801
-57.795532
-41.320740
-22.913330
-3.834442
15.008850
31.566910
44.126556
52.506470
58.927704
63.615913
66.313362
66.519440
64.545143
60.979492
55.633148
48.136559
38.680420
28.714813
18.884537
9.552795
0.676521
-7.869202
-16.503334
-25.990730
-36.783180
-48.396320
-59.116398
-67.202789
-71.278244
-70.819366
-66.127007
-58.147690
-48.151917
-37.421005
-27.186062
-18.438984
-12.065314
-8.657915
-8.138473
-9.272356
-9.846680
-7.291142
0.328224
13.511511
31.596401
52.577869
73.550697
91.579315
104.694931
112.269295
114.719955
113.016586
108.153648
102.011444
96.163246
91.052711
86.129318
80.750206
74.605476
67.519882
59.372574
49.773911
40.120255
31.936691
25.530334
19.994209
14.391403
8.463089
2.293030
-3.654106
-9.279655
-12.037994
-9.366219
-0.478348
13.815598
32.532593
55.493034
82.249344
112.036438
131.867874
132.438858
116.442825
95.123489
77.435287
66.066338
60.161655
56.532814
54.723194
50.164165
42.197083
32.045998
20.014420
5.596631
-11.941646
-32.520435
-56.119583
-78.748055
-95.913765
-103.317444
-100.213242
-90.226387
-77.948158
-71.156723
-69.025330
-70.011292
-72.674034
-77.638069
-85.829971
-94.112923
-103.291809
-114.268784
-127.076462
-138.742615
-145.378418
-142.837433
-129.378464
-104.815048
-71.077400
-34.605904
-1.876060
22.177399
37.163788
45.874046
53.090183
62.656109
77.827461
100.951256
129.968521
162.603149
191.513870
207.711548
205.826050
188.161041
160.389038
128.782318
101.615387
75.315178
46.360771
12.107567
-28.162979
-75.399254
-126.424820
-180.913559
-239.090256
-283.192505
-298.743958
-280.861603
-236.538055
-176.612122
-111.119659
-48.654526
3.482407
41.907028
67.758095
81.908897
86.486282
83.793274
76.544289
67.629692
59.943550
55.624565
56.421196
63.255035
73.480057
83.813950
91.241905
93.479752
88.839661
76.242844
55.794693
30.100098
3.929390
-18.880920
-35.759232
-46.207565
-51.298050
-52.590012
-50.953072
-46.000443
-36.540268
-22.098877
-4.869736
11.100761
21.608055
24.248940
19.430420
10.064636
0.029053
-7.269089
-10.448257
-10.518341
-9.769745
-10.350761
-13.052505
-17.095764
-20.691696
-22.198273
-20.967720
-17.665886
-13.767601
-10.795372
-9.578453
-9.911469
-10.869080
-11.308876
-10.651421
-8.991096
-7.080307
-5.987831
-5.883713
-6.579704
-7.410995
-7.774696
-7.449768
-6.898521
-6.830582
-7.772087
-9.675896
-11.721878
-12.909828
-12.382408
-9.965729
-6.204704
-2.252853
0.739571
1.903297
0.839661
-2.332100
-6.975082
-12.027161
-16.269249
-18.665344
-19.061600
-18.380188
-18.342461
-20.806160
-26.584099
-35.078735
-44.122841
-51.230988
-54.586563
-53.924881
-50.463509
-45.915298
-41.566910
-37.596954
-33.389435
-28.135712
-21.787209
-14.531647
-7.029350
0.039322
6.444305
12.233276
17.648006
22.677349
27.311504
31.525944
35.463676
39.196022
42.575245
45.194271
46.333664
45.368374
42.152168
37.235992
31.763533
27.115551
24.305899
23.583027
24.569094
26.254627
27.546852
27.676640
26.394890
24.024399
21.244339
18.655296
16.493488
14.520558
12.266517
9.322004
5.706517
1.696764
-2.080532
-5.242971
-7.548186
-9.138226
-10.107345
-10.453287
-10.000047
-8.593984
-6.487216
-4.421512
-3.364817
-4.029025
-6.416183
-9.784737
-13.212299
-15.922766
-17.681318
-18.817686
-19.654451
-20.323757
-20.424553
-19.313810
-16.341080
-11.154284
-3.790849
5.254550
14.952883
23.834171
29.611641
30.329128
25.204960
15.230906
3.005527
-8.256247
-15.965790
-19.012571
-17.836432
-13.833775
-8.413635
-2.651100
2.609158
6.391598
7.299801
3.751129
-5.586548
-21.181477
-42.524868
-68.120247
-95.904732
-123.669601
-149.295975
-170.899872
-186.826019
-195.706390
-196.475647
-188.648773
-172.400375
-148.760101
-119.522957
-86.882362
-52.895782
-18.966606
14.266037
46.887314
79.380737
112.265320
145.709442
179.348557
212.265305
243.026123
270.103271
292.118103
308.136475
317.752930
320.883026
317.793488
309.062500
295.682037
279.128113
261.292267
243.900909
228.166290
214.311279
201.639221
189.009247
175.341217
160.141205
143.502213
125.970978
108.248276
90.804932
73.810028
57.104630
40.432400
23.637890
6.764034
-9.887875
-25.941307
-41.035179
-54.821815
-66.813148
-76.369942
-82.750122
-85.359177
-84.143173
-79.689743
-73.067047
-65.501465
-57.988739
-51.132660
-45.358734
-41.018082
-38.615936
-38.572540
-40.888489
-45.158813
-50.533813
-56.148865
-61.540192
-66.911713
-73.261902
-82.023438
-94.713837
-112.218933
-134.310425
-159.306519
-184.239990
-205.434021
-219.500824
-224.323792
-219.653748
-207.140228
-189.732147
-170.703339
-152.844269
-137.970428
-126.845062
-119.415222
-115.197998
-113.316315
-112.670074
-111.818756
-109.201233
-103.332031
-93.291718
-79.138275
-61.843170
-43.112701
-24.609802
-7.282684
8.739410
24.064880
39.241913
54.116699
67.530975
77.729095
83.036316
82.601685
76.688385
66.339081
52.820557
37.100281
19.758728
1.138245
-18.272034
-37.818573
-56.788116
-74.738251
-91.740021
-108.236694
-124.981262
-142.636444
-161.543732
-181.491486
-201.588684
-220.186462
-235.026489
-243.606415
-243.718262
-234.141846
-214.925629
-187.474884
-154.192108
-117.998917
-81.771561
-47.913223
-18.258835
6.172134
24.984390
38.438705
47.260681
52.331482
54.517883
54.526855
52.959534
50.346748
47.386581
44.852764
43.515160
43.827282
45.818596
49.014568
52.641037
55.895294
58.220863
59.405804
59.422386
58.277740
55.824501
51.837524
46.163025
38.834885
30.176804
20.660324
10.878250
1.308380
-7.701706
-16.050842
-23.983673
-32.000153
-40.898041
-51.501862
-64.346130
-79.365875
-95.651093
-111.427673
-124.280823
-131.657257
-131.376617
-122.234802
-104.249878
-78.824524
-48.373993
-15.933380
15.510437
43.538696
66.585693
84.234985
96.775757
104.868713
109.214111
110.302185
108.553711
104.415161
98.502991
91.668274
85.114502
79.963379
77.007874
76.406677
77.694153
80.044495
82.574158
84.575256
85.512512
85.425293
84.315369
82.017944
78.207703
72.628174
65.385193
56.926208
47.934692
38.987732
31.573914
26.666931
24.198730
22.897339
20.653503
15.446716
6.191101
-6.738159
-21.518127
-32.976257
-36.121399
-27.897461
-8.315857
20.060852
53.782715
89.813660
126.068481
161.124939
197.431458
236.667419
278.371399
319.356140
355.222839
382.654541
400.948792
411.869690
418.745239
430.410645
454.686096
495.487000
550.792542
613.396362
673.984436
724.548401
760.636108
750.894592
677.789612
541.679199
363.593506
175.035217
2.247620
-141.794739
-255.296509
-341.717834
-405.585144
-446.187134
-463.459534
-460.244812
-443.243774
-421.048645
-400.991272
-386.866394
-378.871094
-375.206390
-369.764893
-357.874420
-338.051025
-312.731781
-286.700500
-264.420013
-248.281250
-238.647705
-234.775085
-232.941223
-229.167480
-219.748383
-202.280762
-176.111481
-142.835663
-106.198639
-71.545364
-44.244995
-26.498505
-17.472198
-14.002243
-12.591080
-10.983612
-8.740646
-6.499786
-4.961624
-4.141403
-2.916763
-0.186935
4.366226
9.820244
14.606392
17.263474
17.078522
14.345444
10.047989
5.449677
1.527374
-1.076759
-2.358170
-2.742561
-2.820076
-3.127968
-3.911606
-5.214111
-6.721001
-8.598656
-10.744873
-13.031998
-14.947411
-15.694321
-14.288834
-9.904022
-2.307388
7.962318
19.479210
30.513176
39.251938
44.472137
45.824203
43.660606
39.040062
33.077118
26.786156
20.746696
15.351837
10.754364
7.177322
4.833382
3.812347
4.072845
5.307945
7.170921
9.268837
11.368698
13.220322
14.622353
15.265343
14.790184
13.051422
9.725567
4.872505
-1.275902
-8.235756
-15.418987
-22.178539
-27.946224
-32.360729
-35.305004
-36.996704
-37.909397
-38.521164
-39.337791
-40.429268
-41.472595
-41.645927
-39.922890
-35.310379
-27.515736
-17.001617
-5.082777
6.461367
15.968737
22.328583
25.217583
24.941408
22.229235
17.841928
12.406086
6.433450
0.411928
-5.175311
-9.857986
-13.239271
-15.199902
-15.863703
-15.640678
-15.120503
-14.666959
-14.388905
-14.054562
-13.263422
-11.740383
-9.537663
-7.116998
-5.174091
-4.481132
-5.395156
-7.773885
-11.034624
-14.450319
-17.411287
-19.566957
-20.888542
-21.529568
-22.014151
-22.842997
-24.428638
-26.956696
-30.278461
-33.879848
-36.893490
-38.361912
-35.966087
-28.423578
-15.333773
2.578237
23.485090
44.940548
64.381355
79.861755
90.367157
95.915794
97.059273
94.719711
89.845116
83.172997
75.341934
66.922829
58.500538
50.645779
43.836182
38.218533
33.758904
30.311684
27.654707
25.649754
24.241394
23.457260
23.274948
23.479813
23.488632
22.564800
20.068569
15.674656
9.552631
2.261887
-5.452026
-12.946930
-19.954865
-26.588966
-33.264053
-40.408730
-48.392265
-57.268990
-66.760124
-76.112411
-84.055733
-89.065880
-89.568192
-84.417259
-73.217308
-56.543983
-35.856384
-13.187904
9.303284
29.798027
47.031113
60.400238
69.783447
75.352142
77.483505
76.669846
73.522247
68.730896
62.966217
56.826416
50.748474
45.112885
40.308228
36.751511
34.762711
34.334549
34.933151
35.561981
35.066162
32.676849
28.241074
22.443756
16.547028
11.683319
8.277237
5.856033
3.355255
-0.389374
-6.140106
-14.089020
-23.587982
-33.170410
-40.925293
-44.840881
-43.449677
-36.414795
-24.965668
-11.969177
-1.712494
1.646973
-4.447968
-20.062195
-42.698090
-67.831085
-90.157959
-105.068390
-109.985016
-105.856201
-95.358246
-81.529999
-67.014801
-53.776398
-42.940308
-34.845825
-29.466614
-26.819122
-28.806580
-35.963776
-46.365295
-56.670746
-63.882904
-66.316315
-63.730774
-57.133453
-48.830536
-44.296387
-46.712372
-55.540314
-68.126740
-82.139099
-96.280182
-109.785645
-121.968597
-132.358154
-143.813232
-156.320007
-166.227081
-169.194702
-163.847778
-152.414459
-139.070892
-127.893707
-97.260193
-41.195862
28.127502
92.929321
144.618683
183.090881
210.648453
229.557083
242.133270
248.736267
247.127655
238.556747
227.391388
217.461014
210.456696
205.997375
203.273666
202.022919
198.404587
188.536942
173.600922
157.779129
144.049179
132.216476
119.602921
102.310989
81.888687
53.370178
14.531677
-30.227539
-74.016098
-112.851791
-146.789154
-178.043152
-208.963989
-240.828766
-281.431763
-332.719666
-387.827515
-436.612610
-471.696594
-489.342529
-488.344971
-469.578491
-391.961060
-258.678467
-112.464661
4.899750
80.983841
124.010803
146.920654
159.573761
167.252319
172.100861
167.680099
153.262680
135.691528
122.974152
118.271942
120.085815
125.032837
129.826111
132.636368
127.710037
114.824112
99.774117
89.039589
85.094719
86.592072
90.527061
94.152054
95.839043
91.979630
82.699455
71.987839
64.277733
61.557076
63.535316
68.785767
75.268936
80.520340
80.111816
71.296265
54.289383
31.748405
7.531555
-14.264191
-30.371666
-39.485245
-42.502975
-42.399765
-41.671455
-41.093590
-39.921654
-36.944038
-31.467972
-23.859062
-15.359444
-7.489853
-1.384972
2.513443
4.213295
4.065529
2.333580
-0.862740
-5.413475
-11.006081
-16.986099
-22.572144
-26.338554
-27.161369
-24.530518
-18.684319
-10.813591
-2.704414
3.747421
7.142273
7.028923
4.094978
-0.235237
-4.246651
-6.592323
-6.770409
-5.234772
-3.159531
-2.052734
-3.158478
-6.926147
-13.003380
-20.315590
-27.581024
-33.831696
-38.737053
-42.602379
-46.053650
-49.580734
-53.221748
-56.551300
-58.700356
-58.535851
-54.944122
-47.080734
-34.629768
-18.191223
0.513748
18.668083
32.863457
39.999725
38.304893
28.086151
11.985878
-5.723351
-20.715492
-30.189880
-33.832855
-33.567566
-32.483276
-32.254219
-32.868599
-32.715073
-29.766319
-23.206848
-14.061241
-4.789200
2.172668
5.731697
6.442215
5.697266
4.564125
3.062897
0.519905
-3.324284
-7.562790
-10.139477
-8.922123
-3.160519
5.783749
14.740551
20.286564
20.442699
15.539454
7.959314
0.771564
-3.596825
-4.263636
-1.841042
2.285398
6.873882
11.234058
15.509928
20.211676
26.022095
33.455502
42.474838
52.540424
62.458466
70.825981
76.458237
78.677704
77.349075
72.643059
64.838387
54.298027
41.822536
28.617996
16.565456
7.885029
4.519515
7.646110
17.415167
32.943974
52.352791
72.814407
90.547195
101.488091
102.329597
91.713303
70.874153
43.576530
15.056681
-9.813581
-26.321466
-32.221672
-28.471540
-19.107311
-9.787296
-5.746031
-9.791716
-21.171463
-35.898373
-48.404198
-53.963200
-50.321724
-38.042328
-19.560673
2.110516
24.230301
44.452438
60.419861
69.649628
69.916840
60.241203
42.016884
18.986008
-3.689896
-21.218048
-30.776619
-32.247314
-27.812241
-20.833221
-14.288124
-9.743942
-7.379234
-6.653717
-7.217140
-9.367172
-13.809891
-20.988724
-30.493362
-41.162399
-51.553452
-60.596039
-67.759811
-72.496368
-73.566467
-68.862320
-56.119110
-34.238831
-4.580841
29.013641
61.391602
87.961777
106.360580
116.757095
121.122879
121.685104
119.679947
114.595718
104.450912
86.457306
57.986664
17.560257
-34.341843
-94.887451
-159.037323
-220.303558
-271.946594
-308.240875
-325.514160
-322.750214
-301.648682
-266.276184
-222.344910
-176.299911
-134.278076
-101.099350
-79.441055
-69.581314
-69.707642
-76.586334
-86.414764
-95.610519
-101.348816
-101.692612
-95.591934
-82.678444
-63.164902
-37.758720
-7.953743
23.739342
53.826057
78.386673
94.184151
99.741577
95.747986
84.349609
67.974129
48.448280
26.839001
4.311022
-16.801636
-32.719612
-39.014339
-32.018452
-10.124802
25.670277
71.960236
123.113747
171.730835
209.100479
226.329987
216.461334
176.880234
110.980560
27.900726
-59.785431
-139.467392
-201.576172
-241.172882
-257.897095
-254.824432
-236.917496
-209.740860
-178.530304
-147.542572
-119.545685
-95.555695
-74.966370
-55.989136
-36.223206
-13.678741
12.099915
39.257538
63.707825
80.399445
85.519196
78.593140
63.266846
46.231110
34.522736
32.638000
40.950500
55.997955
72.563599
85.971558
93.723755
95.604126
92.748535
86.408081
77.286072
65.610779
51.590332
35.916321
19.784851
4.646423
-8.462158
-19.361450
-29.026184
-39.166260
-51.546326
-67.238892
-86.205444
-107.453552
-129.481750
-150.830627
-170.260071
-186.247803
-197.021667
-200.617310
-195.444763
-181.003601
-158.252136
-129.498657
-97.679688
-65.509521
-34.635925
-5.954285
19.928833
42.236328
59.990967
72.457336
79.561401
82.151123
81.644409
80.010742
78.668823
78.146606
78.137329
78.105103
77.870361
77.859497
78.777954
81.173340
86.506470
95.246948
106.479126
118.168579
127.986816
134.480103
137.452026
137.634521
135.789185
135.207153
138.014404
144.446655
152.984375
161.500854
168.585571
173.880371
177.428345
178.872559
182.493652
192.120972
209.962891
235.916992
268.244629
304.916382
344.625000
387.023071
432.710571
489.654785
564.552002
658.953125
766.505859
874.403809
968.433960
1038.504028
1081.693481
1060.666992
956.532227
771.806885
532.979187
278.602600
41.645142
-159.641846
-319.832581
-440.882690
-528.221130
-582.592163
-606.658325
-606.138245
-589.736389
-566.791870
-544.181335
-524.776428
-508.735046
-495.429688
-479.942383
-459.188782
-433.070648
-404.428650
-377.191040
-353.889984
-334.688660
-318.514435
-304.372894
-289.290436
-271.782532
-252.102997
-232.117004
-214.419891
-201.047821
-192.587982
-187.833588
-183.756653
-174.622482
-155.222931
-123.303848
-81.259903
-35.558777
6.019577
37.823959
58.289291
69.604065
75.822632
79.385056
79.645164
73.583572
58.375153
33.892838
3.516113
-27.176773
-52.780838
-69.970741
-78.041161
-78.172661
-72.363037
-62.165985
-48.416092
-31.433823
-11.650925
9.920570
31.588943
50.482903
63.642334
68.801788
65.360977
54.902344
40.819656
27.154732
17.127533
12.004539
10.748840
10.924866
9.814560
5.688576
-1.478668
-10.292191
-18.626747
-24.395027
-26.142258
-23.224197
-15.610748
-3.841248
10.973595
27.352394
43.499634
57.573204
68.131157
74.421547
76.368042
74.492828
69.790100
62.646957
53.422836
42.303040
29.280010
14.389759
-2.211945
-20.148975
-38.630520
-56.439037
-71.925400
-83.177994
-88.559700
-87.292145
-79.840508
-67.920029
-54.018021
-40.578278
-29.226616
-20.398293
-13.414513
-7.178684
-0.904249
5.363598
10.671251
13.549915
12.776085
7.986671
0.026659
-9.166079
-17.152454
-21.926336
-22.558020
-19.411123
-13.958083
-8.324512
-4.741287
-4.989336
-9.950528
-19.127403
-30.509550
-40.828835
-46.457832
-44.724644
-34.931458
-18.711727
0.625460
19.442602
34.959812
45.896629
52.268787
54.774879
54.179897
51.104977
46.172867
40.222187
34.299950
29.311304
25.699278
23.382324
21.824163
20.275900
18.235405
15.550504
12.251943
8.815379
5.594488
2.574711
-0.695500
-4.865589
-10.579290
-18.150764
-27.502331
-38.213802
-49.631126
-61.084030
-71.872368
-81.290588
-88.627968
-93.359741
-95.277626
-94.573425
-91.768356
-87.549942
-82.714676
-78.136765
-74.679962
-73.034370
-73.335571
-74.737289
-75.369690
-72.679237
-64.171516
-48.354401
-25.288792
3.330475
34.704758
65.632751
93.353226
115.980423
132.638138
143.321793
148.560867
149.143311
146.006500
140.181854
132.823837
125.065994
117.796341
111.415718
105.831909
100.614220
95.326477
89.838974
84.373726
79.271797
74.663788
70.229111
65.305153
59.156208
51.346474
41.918724
31.357254
20.324734
9.347689
-1.355742
-11.895433
-22.588070
-33.611900
-44.850060
-55.769325
-65.610275
-73.736084
-79.950623
-84.642365
-88.700432
-93.101196
-98.581657
-105.250946
-112.572876
-119.333290
-123.855675
-124.292603
-118.963837
-106.841179
-87.949005
-63.516304
-35.758301
-7.395569
18.997360
41.523407
59.088730
71.395462
78.632515
81.318459
80.137329
75.934052
69.701180
62.502182
55.291298
48.806580
43.465126
39.378540
36.347397
34.019730
32.066299
30.352737
28.982056
28.237366
28.316483
29.179230
30.378052
31.218735
30.978485
29.159943
25.657715
20.718384
14.793777
8.304688
1.562454
-5.306198
-12.357727
-19.800415
-27.939545
-37.113831
-47.536133
-59.015747
-70.889343
-81.921356
-90.390549
-94.450806
-92.600464
-84.129181
-69.444611
-50.072876
-28.244614
-6.379044
13.532028
30.212845
43.115921
52.172043
57.498474
59.254730
57.654953
53.111588
46.391632
38.621460
31.073822
24.969269
21.185242
20.082825
21.503906
24.877960
29.398956
34.249329
38.661957
42.047791
43.997070
44.251984
42.776703
39.706818
35.324768
29.881378
23.378021
15.512146
5.899567
-5.616791
-18.717224
-32.611542
-46.402344
-59.499542
-71.887909
-84.026093
-96.356018
-108.808929
-120.489258
-129.782806
-134.804626
-133.928101
-126.260376
-111.783051
-91.343781
-66.426208
-38.906952
-10.813965
15.898438
39.607758
59.060516
73.521912
82.733582
86.779999
85.983429
80.721924
71.402191
58.593414
43.223206
26.670807
10.755890
-2.568970
-11.644287
-15.475037
-13.953613
-7.850739
1.437164
12.199158
22.736664
31.602264
37.847839
41.110840
41.555969
39.760315
36.430145
32.290436
27.860199
23.375549
18.691010
13.282990
6.375671
-2.801453
-14.575653
-28.644348
-44.066956
-59.672882
-74.508820
-88.192932
-100.720947
-111.942352
-121.025635
-126.217102
-125.269867
-116.377930
-99.105194
-74.754547
-46.009155
-16.025177
12.540039
38.086914
60.075165
78.620911
93.921173
105.932861
114.312286
118.575409
118.402924
113.853058
105.526215
94.469543
81.924530
68.977509
56.241791
43.825073
31.534241
19.285828
7.400085
-3.308716
-11.791870
-17.219666
-19.318726
-18.493286
-15.669250
-12.049011
-8.691589
-6.323120
-5.245667
-5.373718
-6.397949
-7.971191
-9.853455
-12.047302
-15.002930
-19.505859
-26.609009
-37.297974
-52.060608
-70.507935
-91.165039
-111.682922
-129.183289
-140.960754
-145.016724
-140.512573
-127.993469
-109.314880
-87.335571
-65.237305
-45.834351
-30.838928
-20.597900
-14.166626
-9.908020
-6.170898
-1.742676
3.935059
10.898010
18.865784
27.433289
36.062988
44.153748
51.085632
56.407043
60.024048
62.211426
63.497253
64.347900
64.888855
64.762573
63.234436
59.483887
52.911011
43.423584
31.391602
17.597351
2.976685
-11.556396
-25.230713
-37.431580
-47.746399
-55.983765
-62.194092
-66.674316
-69.869934
-72.328552
-74.601624
-77.213440
-80.503418
-84.498718
-88.678589
-91.902161
-92.521240
-88.796204
-79.447205
-64.119812
-43.504944
-19.167480
6.930969
32.790955
56.651733
77.073944
93.013123
103.903595
109.737762
111.076477
108.837921
104.031219
97.524170
89.944916
81.740936
73.293396
64.968475
57.012146
49.452240
42.137695
34.760559
27.094971
19.102570
10.911530
2.772949
-5.024445
-12.178131
-18.424927
-23.586212
-27.588501
-30.525391
-32.656555
-34.227875
-35.428619
-36.273132
-36.644806
-36.319702
-35.106689
-32.853729
-29.614563
-25.667419
-21.611877
-18.294617
-16.565002
-16.976410
-19.429016
-23.073029
-26.513885
-28.169739
-26.802246
-21.888550
-13.762024
-3.502502
7.422333
17.510742
25.605255
31.041077
33.650421
33.639038
31.426422
27.527283
22.539154
17.113983
11.876099
7.363922
3.937469
1.742493
0.739532
0.795441
1.749786
3.462463
5.772125
8.457062
11.254669
13.869720
16.061768
17.638794
18.482513
18.490540
17.582672
15.702423
12.885376
9.312714
5.291107
1.235229
-2.460815
-5.567505
-8.072449
-10.174713
-12.114380
-14.058533
-16.055176
-18.020538
-19.860046
-21.454987
-22.569702
-22.699799
-21.019348
-16.544128
-8.559692
2.964233
17.169647
32.429108
46.847809
58.826355
67.402649
72.295135
73.680267
71.943939
67.573425
61.160645
53.441284
45.260254
37.393066
30.437592
24.695801
20.236267
16.956940
14.676971
13.158447
12.116058
11.225037
10.223358
8.921814
7.248169
5.148865
2.546082
-0.604279
-4.305176
-8.395020
-12.608948
-16.780090
-20.939880
-25.279358
-30.050171
-35.307434
-40.783325
-46.042358
-50.642090
-54.434204
-57.684814
-61.044189
-65.248291
-70.827759
-77.752014
-85.321777
-92.187439
-96.644165
-97.043213
-92.322510
-82.357849
-68.010315
-50.912354
-32.978333
-15.979370
-1.206604
10.628418
19.297058
24.925964
27.895203
28.738342
28.047852
26.460876
24.527161
22.637695
20.990723
19.579712
18.250519
16.871063
15.444153
14.147095
13.241913
12.979095
13.422974
14.440643
15.732727
16.986725
17.927948
18.176361
17.335510
15.129669
11.488342
6.608673
0.977295
-4.754028
-10.002899
-14.511108
-18.523682
-22.433533
-26.498871
-30.707611
-34.996490
-39.415405
-44.254211
-49.855164
-56.304474
-63.439270
-70.359680
-75.499146
-77.109375
-74.026794
-66.029694
-53.843933
-38.917969
-22.973358
-8.475281
2.866272
10.631805
15.488129
18.302643
19.746338
20.192841
19.860687
18.947754
16.027771
10.441986
3.168915
-3.646637
-8.246979
-9.902924
-8.723511
-5.387146
-0.793518
1.417786
-1.185242
-8.237915
-17.388092
-26.671753
-35.454865
-43.963257
-52.553925
-60.918579
-71.533966
-85.291595
-100.335358
-113.792740
-124.817932
-135.158752
-147.394104
-163.151840
-159.736359
-125.061050
-65.735016
-0.283676
57.162949
101.356857
132.060944
151.168716
161.414856
166.616928
166.954666
162.581802
155.331512
147.673752
140.721146
133.972778
126.402458
116.783478
104.850769
87.836411
64.803795
38.716637
15.603676
1.627380
0.443382
14.371834
37.660339
62.609886
80.855652
88.033875
85.187752
76.879005
67.768845
60.248840
54.600319
49.852562
46.019066
43.286324
42.678726
45.464085
52.045372
60.780701
68.034279
69.161003
60.301491
40.785881
13.333824
-16.447159
-42.059799
-58.825966
-65.726311
-65.323441
-61.665070
-58.062431
-55.108963
-51.272102
-44.656097
-34.761818
-23.191208
-12.751556
-5.893982
-3.355759
-4.121284
-6.040062
-6.918060
-5.925110
-3.608025
-1.453781
-0.963158
-2.944290
-7.134850
-12.543434
-17.707199
-21.292908
-22.573700
-21.457581
-18.393730
-14.143692
-9.727974
-5.417770
-1.558403
1.633560
3.957199
5.164017
5.177528
4.174988
2.644691
1.148293
0.180893
-0.267471
-0.578964
-1.340134
-3.042267
-5.769379
-8.991035
-11.900810
-13.595001
-13.487999
-11.690826
-8.950012
-6.408051
-5.109222
-5.583832
-7.460785
-9.680916
-10.865166
-9.991562
-6.861969
-1.991730
3.643036
9.121689
13.737167
17.099457
18.902420
19.025772
17.589386
15.136635
12.479904
10.299103
8.588966
6.364174
1.996223
-5.914909
-17.666359
-32.019035
-46.657478
-59.039871
-67.394669
-71.155853
-70.854866
-67.637169
-62.704987
-57.132828
-51.864952
-47.893272
-46.116524
-47.187866
-51.045547
-56.724449
-62.423126
-65.960304
-65.441315
-59.974319
-50.043419
-37.336670
-24.134460
-12.488197
-2.992340
5.057446
13.077862
22.432674
33.552109
45.551128
56.602718
64.676285
68.290306
67.139832
62.018082
54.600025
47.062969
41.423637
38.940292
39.768272
42.844765
46.212421
47.658703
45.464317
39.036572
29.024414
17.085310
5.312548
-4.266132
-10.073922
-11.308407
-8.051327
-1.236642
7.591743
16.713055
24.801357
31.009087
35.230194
37.748146
39.045372
39.543758
39.512947
39.146103
38.575150
37.869484
36.899498
35.502335
33.342392
30.163418
26.023891
21.193684
16.157969
11.475290
7.612888
4.757702
2.739569
1.153730
-0.601590
-3.007812
-6.288628
-10.280617
-14.405528
-17.899746
-20.238230
-21.427374
-22.114874
-23.370029
-25.904465
-29.922894
-34.634033
-38.286827
-38.621613
-33.595016
-22.104347
-4.437828
17.784754
42.244293
66.364189
88.041328
105.812309
118.876900
127.006134
130.454605
129.924591
126.457016
121.247849
115.443359
109.994316
105.647057
102.824158
101.593971
101.548454
101.722969
100.602959
96.497406
88.016525
74.565651
56.668633
35.735786
13.560066
-8.300919
-28.998947
-48.359695
-66.715378
-84.443054
-101.730591
-118.448029
-134.327667
-149.121948
-162.770523
-175.394455
-187.158890
-198.036255
-207.686096
-215.405289
-220.439331
-222.321945
-221.305313
-218.428009
-215.423569
-214.036606
-215.401276
-219.435776
-224.684784
-228.734207
-228.866516
-222.763885
-209.049637
-187.503891
-159.048218
-125.501801
-89.431755
-53.682800
-21.046921
6.275215
27.006416
41.038193
49.205658
52.938519
53.758755
52.874340
51.038445
48.614334
45.830669
42.924362
40.222420
38.111652
36.942879
36.966370
38.237488
40.761116
44.318321
48.577728
52.933205
56.611359
58.852997
59.034424
56.957367
52.992569
47.901947
42.613724
37.805115
33.775620
30.234970
26.515182
21.870850
15.848816
8.468445
0.150146
-8.510284
-17.152069
-25.720490
-34.607117
-44.363098
-55.403503
-67.679138
-80.328674
-91.727417
-99.782013
-102.493256
-98.339996
-86.959595
-69.162018
-46.683960
-21.689209
3.751404
27.907837
49.476898
67.469147
81.604584
91.897522
98.535034
101.884827
102.483398
101.123657
98.775574
96.381653
94.641785
94.913879
98.008728
103.966919
112.074524
121.205322
130.289795
138.648315
145.949341
152.034546
158.274963
165.680115
174.476135
183.845581
192.353027
198.762451
202.582581
204.358643
205.457092
210.019775
222.083008
244.193298
276.150208
314.724548
354.647278
390.540527
418.700378
424.080261
398.376404
340.935364
259.669495
167.702515
77.602112
-2.640289
-69.947937
-124.224182
-166.848389
-197.513214
-216.660309
-225.860016
-227.853912
-225.794312
-222.187714
-218.434860
-214.922592
-211.824356
-207.856918
-202.200119
-194.776199
-186.196457
-177.356583
-168.988586
-161.358963
-154.430069
-148.293350
-142.216919
-135.819824
-129.214294
-123.147842
-118.653107
-116.161835
-114.829102
-112.329025
-105.741074
-92.432983
-72.090225
-47.151794
-22.217361
-2.046295
10.422943
15.210312
14.679520
12.008881
9.674210
8.393051
7.671402
6.591583
4.781578
2.554306
0.585365
-0.700989
-1.318443
-1.487114
-1.342896
-0.428604
2.032646
6.731789
13.815742
22.594139
31.639137
39.206306
44.043915
44.990875
42.040344
36.105194
28.658295
21.216965
14.845428
9.984344
6.464333
3.832161
1.651062
-0.014175
-0.943405
-0.781052
0.559944
2.876839
5.707909
8.639214
11.412247
13.848267
15.977318
17.681404
18.727440
18.830322
17.784142
15.840752
13.606369
11.911659
11.259033
11.677544
12.502213
12.724541
11.665268
8.803120
4.362514
-1.120575
-7.086594
-13.256100
-19.562145
-25.970367
-32.313332
-38.167873
-43.013702
-46.224163
-47.247971
-45.648544
-41.207897
-33.989288
-24.704533
-14.508242
-4.812540
3.077185
8.376167
10.927452
11.074909
9.359602
6.280739
2.253403
-2.377733
-7.131094
-11.431934
-14.731034
-16.671680
-17.272753
-16.811138
-15.726102
-14.307445
-12.623763
-10.516947
-7.875054
-4.842958
-1.770606
0.814365
2.516116
3.116527
2.614488
1.206250
-0.914095
-3.555749
-6.511327
-9.486693
-12.093712
-14.079411
-15.373796
-16.192904
-16.839855
-17.573509
-18.424053
-19.476715
-20.695330
-22.118340
-23.878330
-26.113024
-28.881464
-32.041145
-35.360081
-37.376701
-37.012558
-33.271027
-25.464216
-13.437796
2.213982
20.187334
38.765141
56.244297
71.339264
83.199478
91.473076
96.038139
96.830658
93.854263
87.399368
78.139267
67.163651
55.728447
44.846237
35.222702
27.244642
21.083591
16.804218
14.306751
13.315081
13.313017
13.694450
13.795372
13.169186
11.695175
9.496326
6.823036
3.881607
0.748837
-2.684402
-6.710110
-11.685013
-17.777550
-24.851852
-32.406490
-39.756447
-46.338345
-51.963062
-56.881989
-61.693611
-67.029724
-73.364044
-80.848450
-89.261528
-97.868790
-105.426323
-110.225967
-110.439056
-104.578423
-92.038597
-73.408806
-50.322838
-25.108910
-0.087204
22.705399
41.753891
56.129295
65.474617
70.045242
70.608856
68.323402
64.401863
59.773811
55.024590
50.455902
46.298080
42.747589
40.031975
38.290062
37.615379
38.110291
39.862816
42.938698
47.169083
51.967224
56.353477
59.216576
59.723076
57.725555
53.715477
48.573654
43.124802
37.696945
32.162193
26.068909
19.115807
11.285378
2.922867
-5.615631
-14.040482
-22.302826
-30.606186
-39.188004
-48.273895
-58.000839
-68.482025
-79.721802
-91.377991
-102.509842
-111.412231
-115.965012
-114.255463
-105.389725
-89.998062
-70.099548
-48.412201
-27.490250
-9.133057
5.823883
17.137756
24.891357
29.217041
30.389801
28.969971
25.831238
21.942596
18.071243
14.702744
12.013092
10.228088
9.621780
10.526138
13.112656
17.218781
22.282837
27.490372
32.050217
35.267975
36.706009
36.196228
33.826767
29.945801
25.039719
19.618286
14.049103
8.537277
3.055695
-2.505341
-8.182510
-14.049637
-20.071167
-26.207275
-32.370468
-38.585892
-44.896194
-51.482407
-58.476410
-65.727188
-72.662064
-78.110687
-80.619858
-78.849792
-72.029968
-60.199753
-44.187485
-25.367630
-5.302246
14.375366
32.229843
47.084991
58.096024
64.886292
67.550888
66.485199
62.303482
55.787750
47.771713
39.229568
31.179291
24.530365
19.902756
17.524704
17.250366
18.743179
21.609818
25.326279
29.291443
32.837830
35.313873
36.303253
35.719635
33.800964
30.948334
27.553711
23.756989
19.487854
14.524521
8.567200
1.457306
-6.703445
-15.510788
-24.361526
-32.604477
-39.811066
-45.927292
-51.314880
-56.597870
-62.296768
-68.568695
-75.097046
-80.974854
-84.789139
-84.909409
-79.788284
-68.595200
-51.615234
-30.434174
-7.547440
14.255875
32.718002
46.658432
55.876755
60.854584
62.222595
60.573074
56.494141
50.707367
44.146255
37.778549
32.361450
28.129196
24.885742
22.273392
20.006195
18.179550
17.151443
17.323410
18.850998
21.488815
24.566574
27.236649
28.820328
28.970047
27.793106
25.636658
22.824692
19.493698
15.586731
10.994522
5.713425
-0.082397
-6.154724
-12.299179
-18.379532
-24.295029
-29.936890
-35.265259
-40.457336
-45.944092
-52.343048
-60.072449
-68.918060
-77.860901
-85.189575
-89.002594
-87.836121
-81.082001
-69.039398
-52.751831
-33.796539
-13.884277
5.296326
22.338348
36.181152
46.242371
52.391617
54.860382
54.164185
50.963242
46.026810
40.083679
33.693817
27.260468
21.116272
15.616089
11.287476
8.676025
8.198669
9.869446
13.201080
17.380249
21.543671
25.062988
27.610870
29.073105
29.358734
28.295898
25.742523
21.667511
16.318481
10.230682
4.018219
-1.867981
-7.264587
-12.310425
-17.388489
-22.900879
-29.224945
-36.621460
-45.167664
-54.746796
-64.912659
-74.792603
-83.131042
-88.403687
-89.127258
-84.353241
-73.963165
-58.823486
-40.499756
-20.885651
-1.754028
15.512207
29.989044
41.133682
48.683807
52.618149
53.166779
50.764328
45.999084
39.563599
32.166138
24.534424
17.465027
11.753998
8.087311
6.861694
8.072357
11.221649
15.483459
19.853180
23.359924
25.330017
25.510773
24.095978
21.648529
18.714447
15.601593
12.232697
8.266174
3.362305
-2.549683
-9.179779
-16.130127
-23.021057
-29.706696
-36.290405
-42.983765
-50.043152
-57.620544
-65.788391
-74.428192
-83.190918
-91.334167
-97.723694
-101.052643
-99.982422
-93.539429
-81.341339
-63.760834
-42.023254
-18.070190
5.811981
27.497131
45.400665
58.827209
67.759964
72.592407
73.843781
72.053406
67.846848
62.025879
55.533936
49.236099
43.717163
39.155136
35.427124
32.441101
30.248871
29.022217
28.847687
29.560623
30.682068
31.660461
31.968933
31.303680
29.640259
27.158340
24.115646
20.754059
17.208725
13.341629
8.892075
3.556015
-2.765793
-9.856155
-17.226547
-24.321655
-30.745010
-36.350693
-41.293716
-45.904755
-50.669067
-56.128494
-62.733978
-70.557816
-78.956238
-86.346405
-90.565750
-89.472916
-81.729401
-67.314346
-47.555099
-24.701950
-1.276505
20.478333
38.859741
52.787582
61.759659
65.846634
65.575989
61.880814
55.864441
48.617096
41.085938
33.990204
27.805847
22.760620
18.928528
16.278976
14.777359
14.391602
15.116425
16.878952
19.452637
22.472412
25.409164
27.726212
28.921631
28.701584
27.031876
24.177689
20.605850
16.797546
13.103104
9.537231
5.861710
1.743622
-2.966446
-8.139038
-13.441986
-18.612808
-23.619431
-28.667801
-34.103195
-40.191101
-46.938248
-54.048447
-60.998032
-67.015839
-71.144302
-72.322617
-69.524750
-62.193039
-50.430405
-35.064331
-17.500763
0.584244
17.611496
32.295547
43.758530
51.601898
55.834839
56.821686
55.153000
51.385361
46.054993
39.690826
32.883072
26.402176
21.014740
17.340408
15.639709
15.792801
17.356750
19.797852
22.650101
25.476456
27.871445
29.466064
29.969147
29.250381
27.368683
24.442764
20.586823
15.924438
10.590149
4.810425
-1.077316
-6.911957
-12.695694
-18.662231
-25.158447
-32.382996
-40.330200
-48.828079
-57.596863
-66.185760
-73.918533
-79.758804
-82.412460
-80.658234
-73.739838
-61.721283
-45.546326
-26.805725
-7.301788
11.275436
27.625458
40.938110
50.750015
56.968292
59.735443
59.317093
56.158859
50.873444
44.269257
37.310059
31.040726
26.296181
23.599876
23.041672
24.275635
26.698593
29.554489
32.095215
33.782494
34.405869
34.041931
32.950668
31.390472
29.315804
26.437668
22.316513
16.704926
9.708328
1.851295
-6.281952
-14.209915
-21.774879
-29.101562
-36.318291
-43.564911
-50.900444
-58.419830
-66.268532
-74.504807
-82.862610
-90.452896
-95.903053
-97.540062
-93.964478
-84.575287
-69.858437
-51.306686
-31.034271
-11.191971
6.517296
21.139557
32.384232
40.393349
45.339638
47.415741
46.856682
44.121002
39.949867
35.269402
30.879974
27.292938
24.657753
22.878815
21.885818
21.679344
22.291130
23.678474
25.646500
27.899071
30.088234
31.972137
33.325874
33.919418
33.445068
31.568726
28.083511
23.020279
16.603645
9.234688
1.381210
-6.501251
-14.082581
-21.193832
-27.940323
-34.647224
-41.778664
-49.599228
-57.858231
-65.617584
-71.366966
-73.479759
-70.656776
-62.425758
-49.248131
-32.463890
-13.899979
4.537041
21.227684
35.021370
45.285789
51.853302
54.784286
54.322906
50.899849
45.198723
38.142708
30.832062
24.273392
19.163246
15.797447
14.031380
13.571053
14.139351
15.568218
17.753185
20.473846
23.342434
25.707817
26.879025
26.267925
23.580704
18.973377
12.906002
6.079521
-0.922924
-7.813900
-14.713215
-21.893307
-29.671074
-38.136158
-47.120667
-56.339470
-65.356781
-73.597725
-80.191788
-83.946457
-83.485985
-77.780128
-66.517456
-50.456718
-31.282631
-11.067425
8.169861
24.970909
38.473640
48.304371
54.308685
56.491619
55.111885
50.690346
44.156494
36.655045
29.249668
22.719299
17.341291
13.029169
9.634871
7.203352
5.910803
6.109049
7.914555
10.987879
14.568193
17.638689
19.251638
18.818712
16.301056
12.028180
6.616080
0.709188
-5.231360
-10.973387
-16.657091
-22.764874
-29.918266
-38.520214
-48.403770
-58.579250
-67.276062
-72.402527
-72.079689
-65.259323
-52.051266
-33.768589
-12.576848
8.954296
28.531200
44.472027
56.025959
63.280209
66.769691
67.160660
65.004288
60.691879
54.602219
47.282501
39.463425
31.834911
24.944115
19.041271
14.174929
10.357052
7.679384
6.237835
6.014994
6.711761
7.698492
8.194456
7.531897
5.269947
1.404387
-3.753349
-9.687851
-15.836027
-21.819187
-27.605141
-33.517830
-40.111973
-47.889771
-56.926750
-66.614510
-75.597160
-82.025101
-83.978592
-80.094101
-69.960220
-54.295319
-34.814487
-13.705193
6.864540
25.173092
40.171070
51.391075
58.741425
62.452415
62.938324
60.790955
56.768223
51.626930
46.005249
40.325932
34.854511
29.753750
25.262859
21.689022
19.321335
18.283699
18.401512
19.193565
19.950584
19.936550
18.623146
15.850746
11.923100
7.341953
2.678123
-1.836990
-6.412334
-11.579811
-17.857117
-25.464352
-34.176998
-43.367958
-52.227039
-59.795452
-64.936295
-66.381660
-62.956436
-54.023548
-39.921688
-22.180466
-3.127857
14.748901
29.659298
40.761993
48.210899
52.594460
54.576672
54.573181
52.845966
49.657681
45.333038
40.294491
34.906601
29.434822
24.132393
19.269371
15.212723
12.341862
10.908203
10.805141
11.561195
12.472168
12.756393
11.905037
9.742764
6.380241
2.121967
-2.725170
-7.986416
-13.668148
-19.897888
-26.895287
-34.738373
-43.247837
-51.793709
-59.264999
-64.177444
-65.077065
-60.922874
-51.515930
-37.543106
-20.464920
-2.111347
15.694336
31.458191
44.130310
53.106712
58.259506
59.836945
58.468285
54.988712
50.302330
45.140690
40.003052
35.166496
30.751286
26.820648
23.321457
20.057560
16.757530
13.244915
9.568729
5.993496
2.866383
0.320301
-1.853825
-4.190929
-7.235909
-11.207474
-15.840298
-20.580570
-24.956373
-28.917393
-32.976929
-37.870651
-44.108276
-51.436142
-58.704884
-64.013901
-65.399261
-61.345325
-51.306965
-36.013962
-17.076988
3.384174
23.299820
40.902779
54.923435
64.635132
69.993301
71.704239
71.013824
69.424438
68.144386
67.651825
67.612106
67.245674
65.868233
63.279148
59.879631
56.280334
52.972511
50.091522
47.451950
44.741550
41.688698
38.187183
34.201843
29.697212
24.443520
18.321171
11.231495
3.285744
-5.251900
-14.155457
-23.233368
-32.380219
-41.491035
-50.534981
-59.053604
-66.010162
-69.937454
-69.384476
-63.488419
-52.374191
-37.234955
-20.004456
-3.484734
9.971161
19.093658
23.619797
23.966599
20.927155
15.635391
9.449234
3.790421
-1.457916
-6.792648
-12.557281
-18.843475
-25.611832
-32.672653
-39.422974
-45.002884
-48.552429
-51.621201
-55.826569
-61.808868
-69.056000
-76.785782
-84.398010
-91.346741
-97.136444
-100.902603
-104.254578
-108.049103
-111.714584
-113.984238
-114.601074
-114.995621
-117.307098
-123.256866
-118.160461
-93.290253
-50.295181
0.395309
48.555649
88.596100
118.282745
137.185532
145.122147
145.149948
137.765472
124.489243
108.624863
94.291153
84.145645
77.965302
75.887527
75.517975
74.279083
68.418533
56.416306
39.460815
20.382294
1.815323
-14.784866
-28.762772
-40.008514
-48.033585
-53.683319
-57.716675
-60.552216
-62.333084
-63.317505
-63.927887
-64.395157
-64.933624
-65.287766
-65.623123
-65.536453
-63.825676
-58.872513
-49.304062
-34.818954
-16.386688
3.707886
22.892899
38.826324
50.567902
58.860092
65.754013
73.817490
85.075302
100.443695
119.490509
140.776169
162.226929
181.674194
197.162842
207.165771
210.866455
208.108261
199.426910
185.879196
168.824615
149.635422
129.507355
109.326981
89.657013
70.923126
53.384460
37.243713
22.684097
9.841064
-1.200684
-10.321991
-17.450928
-22.694611
-26.370422
-29.105835
-31.575531
-34.410400
-38.010895
-42.434021
-47.405853
-52.424622
-56.971344
-60.690430
-63.651398
-66.287628
-69.238434
-73.090332
-78.103394
-84.154419
-90.919952
-98.005768
-105.152191
-112.197296
-118.936157
-125.055176
-130.214478
-134.248718
-137.292145
-139.822784
-142.339447
-145.055084
-147.645508
-149.214386
-148.463715
-144.039886
-134.852142
-120.421387
-101.087280
-78.074768
-53.306854
-28.928650
-6.846771
11.752411
26.386871
37.143372
44.374359
48.402191
49.597504
48.386200
45.450623
41.560394
37.485840
33.703583
30.403748
27.608856
25.257965
23.508636
22.593201
22.738953
23.934204
25.928253
28.205109
30.131042
31.183533
30.952637
29.297241
26.152679
21.596771
15.806396
9.142853
2.200165
-4.323944
-9.765289
-13.792480
-16.541595
-18.642120
-20.911438
-23.997620
-28.110626
-32.877472
-37.628571
-41.692841
-44.707214
-46.711304
-48.151001
-49.603241
-51.540833
-54.255981
-57.740570
-61.683167
-65.483795
-68.285095
-69.025146
-66.649994
-60.401215
-50.056122
-36.162506
-19.830536
-2.575989
14.148315
29.170715
41.814575
51.738373
58.755798
62.679596
63.319763
60.759186
55.393982
48.177185
40.351318
33.016022
26.988708
22.483459
19.264618
16.820221
14.600555
12.233185
9.700012
7.399109
5.961884
6.016693
7.866974
11.221863
15.266541
18.918701
21.258118
21.881042
20.965973
19.094116
16.908630
14.802399
12.875244
11.049255
9.157288
7.037354
4.598114
1.803253
-1.277771
-4.502991
-7.858459
-11.421234
-15.324738
-19.710266
-24.535400
-29.637939
-34.842377
-39.994049
-44.984589
-49.602142
-53.265106
-54.969254
-53.451172
-47.658463
-37.158813
-22.417633
-4.767105
14.027206
32.034164
47.621811
59.592361
67.324326
70.781998
70.426910
66.949036
61.151291
53.807251
45.627548
37.273651
29.424591
22.652756
17.349640
13.688629
11.560043
10.717346
10.907120
11.891388
13.439026
15.258133
16.897507
17.788040
17.313339
14.953293
10.430969
3.886566
-4.269363
-13.358093
-22.637970
-31.548035
-39.736526
-47.119461
-53.789307
-59.849976
-65.381378
-70.447113
-75.198517
-80.006516
-85.379242
-91.763840
-99.231232
-107.147217
-114.128799
-118.210709
-117.425308
-110.306602
-96.459648
-76.686111
-52.821152
-27.253860
-2.368813
19.887840
38.305824
52.283699
61.750328
66.894264
68.131126
66.088165
61.529854
55.309277
48.284550
41.195930
34.560383
28.748722
24.020050
20.625906
18.770237
18.525307
19.728317
21.893759
24.339376
26.353539
27.436344
27.363501
26.236702
24.355669
21.991655
19.279446
16.132538
12.273098
7.336201
1.050064
-6.650368
-15.556160
-25.247101
-35.227890
-44.981461
-54.168945
-62.707802
-70.818977
-78.945366
-87.622650
-97.066010
-106.832047
-115.734390
-121.958008
-123.593994
-119.186783
-108.180557
-90.991699
-68.846848
-43.446442
-16.647354
9.668655
33.824615
54.346786
70.236908
81.141953
87.290756
89.416626
88.396606
85.071014
79.983643
73.491516
65.883118
57.611786
49.424744
42.277130
37.141937
34.659698
34.956696
37.484680
41.267853
45.204529
48.333496
50.091888
50.340637
49.258606
47.148407
44.282410
40.737335
36.416931
31.097870
24.524353
16.541962
7.207001
-3.138275
-13.983612
-24.715118
-34.814697
-43.950714
-52.152588
-59.857910
-67.759674
-76.496246
-86.177948
-96.058655
-104.503357
-109.319153
-108.418701
-100.422058
-85.083618
-63.282715
-36.846680
-8.141724
20.373779
46.455444
68.325928
84.871094
95.596741
100.564697
100.299988
95.565430
87.308350
76.632690
64.779419
52.976257
42.310791
33.442627
26.612061
21.671814
18.275574
16.143799
15.111450
15.132080
16.153625
17.962952
20.122803
22.072571
23.195801
22.936646
20.908691
16.932617
11.107727
3.850769
-4.192322
-12.246887
-19.702454
-26.241394
-32.047058
-37.668579
-43.910522
-51.469604
-60.609009
-70.861450
-80.941040
-88.893921
-92.497803
-89.771973
-79.506592
-61.665955
-37.425354
-9.024048
20.748230
49.089417
73.666321
92.972778
106.321838
113.770386
115.764893
112.985901
106.160339
96.161194
84.025024
70.948242
58.177307
46.684265
36.975220
29.104370
22.879150
18.108215
14.782410
13.131592
13.319275
15.257629
18.380798
21.696533
23.950684
24.063782
21.386475
15.915894
8.299072
-0.514587
-9.617188
-18.520203
-27.270752
-36.412598
-46.684204
-58.653564
-72.415466
-87.330688
-101.980835
-114.215942
-121.480835
-121.321289
-112.091431
-93.509583
-66.880188
-34.865479
-0.787354
32.066406
61.115356
84.658142
101.781677
112.195557
116.086243
114.054749
107.092224
96.552612
83.917175
70.649353
57.937439
46.602844
37.114624
29.684448
24.404419
21.304199
20.390625
21.535034
24.339355
28.087524
31.754761
34.180542
34.342407
31.638428
26.066772
18.258301
9.175293
-0.171997
-9.090454
-17.451050
-25.715820
-34.761719
-45.517029
-58.464233
-73.353333
-89.021973
-103.450806
-114.093933
-118.354980
-114.164185
-100.628235
-78.332214
-49.399048
-16.979980
15.473267
45.011475
69.670776
88.554932
101.481689
108.619385
110.224609
106.653198
98.642700
87.361084
74.384155
61.332764
49.536133
39.877563
32.688721
27.956055
25.454956
24.869507
25.821655
27.891113
30.495605
32.983765
34.582764
34.546143
32.299683
27.605347
20.696167
12.311157
3.455688
-4.947388
-12.422852
-19.168701
-25.984253
-33.932739
-43.923584
-56.238770
-70.246216
-84.268433
-95.880188
-102.359131
-101.429382
-91.879150
-73.929321
-49.179199
-20.212280
10.064331
38.924561
64.207886
84.438110
98.785767
106.976807
109.279297
106.409668
99.498291
89.889771
78.920776
67.721802
57.095093
47.471191
39.100342
32.196777
27.029907
23.807617
22.617920
23.269897
25.304565
28.089722
30.918945
33.072021
33.803711
32.318115
27.992798
20.640625
10.785767
-0.364990
-11.252686
-20.625122
-28.032471
-34.047363
-39.961792
-47.194885
-56.627075
-68.202087
-80.757080
-92.239685
-100.133972
-102.025391
-96.186707
-82.082520
-60.528931
-33.595154
-4.147095
24.789001
50.604492
71.359436
85.972290
94.107239
96.076599
92.747498
85.356262
75.322998
64.022461
52.599976
41.921814
32.515198
24.682556
18.566223
14.274841
11.848511
11.268127
12.375061
14.810120
17.961243
21.037964
23.138794
23.429077
21.396301
16.942749
10.439209
2.598999
-5.774902
-14.072693
-22.004456
-29.684753
-37.535156
-46.082825
-55.822937
-66.900696
-78.913025
-90.685120
-100.283081
-105.302612
-103.469177
-93.392822
-75.099426
-50.201843
-21.505066
7.736206
34.652649
57.246338
74.477783
86.016785
91.911560
92.416321
88.011414
79.614807
68.546631
56.439819
44.909729
35.170410
27.830627
22.895325
20.008606
18.630615
18.265808
18.509033
19.012390
19.505798
19.747009
19.472534
18.353455
15.969299
11.923035
5.968506
-1.840454
-11.022339
-20.838135
-30.413574
-39.154846
-46.959717
-54.302124
-62.054932
-71.111023
-81.914124
-94.070190
-106.256409
-116.333282
-121.886444
-120.783569
-111.767639
-94.802399
-71.093384
-42.881653
-13.024597
15.528931
40.259460
59.467590
72.510803
79.688293
81.968384
80.507385
76.328735
70.237854
62.851440
54.855408
47.096802
40.475464
35.774292
33.384094
33.227478
34.731079
37.084656
39.411804
41.052338
41.628815
41.087311
39.536804
37.129333
33.953491
29.825287
24.461090
17.597900
9.191895
-0.449371
-10.714508
-20.857849
-30.305450
-38.783264
-46.470184
-53.804169
-61.405029
-69.758850
-79.075897
-88.999908
-98.526337
-106.065094
-109.756989
-107.858185
-99.276184
-83.913055
-62.750031
-37.678986
-11.108459
14.513214
37.077576
55.126831
67.879608
75.258057
77.694611
76.003082
71.214722
64.457336
56.838318
49.339142
42.753876
37.577545
34.027802
32.098358
31.617767
32.351410
33.973175
36.107391
38.297302
40.086884
41.070374
40.962158
39.587082
36.897232
32.944611
27.896667
22.033203
15.701462
9.248779
2.820450
-3.625092
-10.293289
-17.436050
-25.064178
-32.935654
-40.594620
-47.580765
-53.644287
-58.932983
-64.018509
-69.653976
-76.480774
-84.670395
-93.667801
-102.158371
-108.296921
-110.100983
-105.992783
-95.284752
-78.369202
-56.749428
-32.743523
-8.934158
12.413689
29.750786
42.412071
50.529144
54.666473
55.527550
53.785053
50.086758
45.059738
39.451691
34.006817
29.350544
25.916328
23.916958
23.416174
24.354084
26.586187
29.773262
33.446449
37.008614
39.857899
41.491405
41.626484
40.171410
37.235023
33.078743
28.024736
22.339851
16.224228
9.776142
3.027134
-3.931545
-10.979977
-17.921333
-24.586246
-30.916172
-36.997932
-43.027176
-49.214844
-55.802498
-62.973618
-70.826080
-79.166595
-87.319572
-93.966187
-97.363251
-95.806427
-88.263306
-74.807182
-56.729721
-36.127991
-15.240509
4.109222
20.798019
34.343918
44.561737
51.354340
54.616165
54.399887
51.035080
45.273193
38.198288
31.001984
24.775681
20.261032
17.818848
17.386200
18.628311
21.053741
24.177643
27.597000
30.876953
33.617325
35.355698
35.680923
34.314529
31.334824
27.149567
22.418564
17.787979
13.556915
9.613144
5.441254
0.443634
-5.725220
-12.966156
-20.715973
-28.240295
-34.872437
-40.389069
-44.975891
-49.162262
-53.572235
-58.733063
-64.920959
-72.175781
-80.196228
-88.180786
-94.895325
-98.703705
-98.019806
-91.734100
-79.735870
-63.037231
-43.535278
-23.517853
-4.986145
10.711792
22.995911
31.797058
37.289948
39.692993
39.254456
36.460297
32.064728
27.073608
22.531158
19.241119
17.546112
17.304230
18.059418
19.289062
20.682709
22.228119
24.089325
26.427582
29.209778
32.113770
34.618530
36.146881
36.314178
34.986572
32.391571
28.910095
24.976135
20.858765
16.687195
12.387054
7.769287
2.668488
-3.016571
-9.199493
-15.699982
-22.287750
-28.780426
-35.087891
-41.174347
-47.065369
-52.804810
-58.501862
-64.178528
-69.730408
-74.658813
-78.116455
-78.939270
-76.031647
-68.710205
-57.075592
-42.089325
-25.359985
-8.715820
6.311401
18.722626
28.091522
34.435608
37.999298
39.085632
37.973145
35.013580
30.721100
25.779938
21.015350
17.147614
14.592712
13.432922
13.468445
14.377594
15.879395
17.784210
19.961914
22.230896
24.270752
25.723785
26.268829
25.788635
24.333191
22.094757
19.200714
15.704071
11.534637
6.659119
1.074188
-5.077209
-11.600586
-18.223389
-24.777740
-31.178680
-37.453308
-43.644409
-49.729767
-55.703522
-61.464844
-67.005737
-72.216370
-76.690704
-79.608307
-79.736664
-75.770691
-66.833557
-53.039215
-35.597656
-16.568695
1.771210
17.615448
30.002808
38.702271
43.916687
45.941620
45.066895
41.701935
36.599762
30.789062
25.414307
21.356628
18.994354
18.128265
18.238495
18.688965
19.087463
19.320007
19.504578
19.905792
20.669464
21.811249
23.070129
24.013275
24.110077
22.931641
20.272339
16.132172
10.824402
4.725159
-1.694336
-8.016724
-13.927063
-19.324585
-24.327637
-29.261780
-34.628357
-40.874268
-48.266602
-56.786316
-65.908264
-74.672485
-81.682068
-85.377716
-84.302979
-77.641998
-65.451324
-48.831787
-29.653076
-10.116577
7.730865
22.414856
33.208008
40.089050
43.566467
44.501251
43.773804
42.083496
39.807709
36.972412
33.491547
29.360138
24.896545
20.663452
17.344116
15.411621
14.996124
15.834076
17.386047
19.021362
20.148438
20.316559
19.345581
17.326996
14.657806
11.836548
9.306244
7.266754
5.576508
3.839722
1.636536
-1.301422
-4.963715
-9.110474
-13.402832
-17.647614
-21.789307
-26.082184
-30.943054
-36.816742
-43.972687
-52.312988
-61.220642
-69.597565
-76.017822
-79.009003
-77.361877
-70.447418
-58.352966
-42.004181
-22.999420
-3.343719
14.974731
30.339294
41.801514
49.118591
52.573547
52.802704
50.520203
46.438843
41.215759
35.412994
29.492706
23.812744
18.694519
14.407745
11.314423
9.667206
9.592010
10.978424
13.399170
16.305786
19.124268
21.408203
22.878479
23.428711
23.009277
21.631958
19.475342
16.875031
14.301575
12.203705
10.784119
9.825958
8.691925
6.491608
2.501129
-3.466949
-10.914551
-18.773102
-25.869720
-31.431976
-35.346222
-38.214264
-41.034973
-44.751984
-49.939026
-56.717682
-64.646851
-72.816071
-79.902374
-84.245392
-84.212341
-78.591553
-67.075226
-50.457092
-30.536835
-9.607605
10.159760
27.081390
40.270020
49.512909
55.086182
57.541046
57.494629
55.562042
52.307556
48.212891
43.738251
39.323456
35.351776
32.136139
29.871094
28.573669
28.213348
28.768494
30.206268
32.444427
35.253815
38.192078
40.602875
41.888947
41.649139
39.798553
36.582581
32.391632
27.667328
22.792480
18.104431
13.744080
9.758728
5.896179
1.800232
-2.912781
-8.391846
-14.477783
-20.721466
-26.526611
-31.487396
-35.478058
-38.740082
-41.771118
-45.206390
-49.598389
-55.231812
-61.950684
-69.083313
-75.473206
-79.657104
-80.199524
-76.050079
-66.829224
-52.956116
-35.585266
-16.408936
2.691528
19.926544
33.921661
43.897034
49.710846
51.757538
50.817200
47.852875
43.753296
39.253357
34.883179
31.008270
27.857452
25.581604
24.298309
23.986115
24.511780
25.630859
27.130615
28.875061
30.807709
32.835449
34.755493
36.209869
36.816956
36.335510
34.746674
32.262665
29.073303
25.219696
20.552979
14.942505
8.440887
1.446930
-5.479309
-11.888275
-17.632172
-22.928558
-28.182098
-33.724731
-39.700714
-46.051971
-52.678314
-59.443481
-66.159393
-72.385864
-77.311066
-79.841919
-78.810516
-73.392059
-63.397430
-49.378662
-32.587250
-14.614380
2.980011
18.900513
32.271210
42.559174
49.497681
53.037506
53.362000
50.912231
46.399841
40.680786
34.521088
28.520966
23.039612
18.282745
14.469879
11.844604
10.598480
10.733063
11.965698
13.797058
15.713409
17.349518
18.514557
19.113434
18.967010
17.803406
15.343384
11.485413
6.423859
0.669128
-5.180145
-10.678619
-15.671539
-20.360779
-25.123596
-30.382690
-36.470215
-43.528503
-51.493866
-60.057495
-68.565094
-75.981140
-80.958862
-82.040405
-78.107147
-68.765610
-54.562927
-36.913971
-17.724243
1.124451
18.162033
32.428177
43.428024
50.913620
54.865173
55.459686
53.146835
48.587906
42.535797
35.751511
28.830139
22.353622
16.821045
12.670883
10.157166
9.194794
9.423187
10.346252
11.521164
12.691788
13.737595
14.541428
14.909180
14.566467
13.284927
11.009247
7.821854
3.834732
-0.881149
-6.308624
-12.430862
-19.113129
-26.122757
-33.197815
-40.182709
-47.116623
-54.238449
-61.766144
-69.694870
-77.625748
-84.618378
-89.336838
-90.334747
-86.393967
-76.974487
-62.368729
-43.625412
-22.379288
-0.529633
20.197891
38.386368
53.084747
63.800179
70.453857
73.271370
72.647980
69.117462
63.288956
55.934723
47.990341
40.479340
34.343124
30.233887
28.328346
28.314201
29.502190
31.124359
32.537300
33.285255
33.219826
32.316078
30.599442
28.065147
24.680809
20.376595
15.172493
9.189713
2.629234
-4.280724
-11.267025
-18.187019
-24.897472
-31.332481
-37.472576
-43.424034
-49.465282
-55.992096
-63.351143
-71.510948
-79.813110
-86.877701
-90.854355
-89.927002
-82.941772
-69.788658
-51.449516
-29.731796
-6.773010
15.438503
35.369492
51.981903
64.654602
73.079750
77.215828
77.285095
73.877174
67.900681
60.457108
52.621872
45.248878
38.833096
33.600441
29.591110
26.792027
25.134056
24.447556
24.469864
24.845802
25.211380
25.242661
24.692085
23.271912
20.673969
16.635921
11.125916
4.424179
-2.890842
-10.147938
-16.927006
-23.195805
-29.422794
-36.338959
-44.546249
-54.231873
-64.907799
-75.396683
-83.960480
-88.631409
-87.693573
-80.122009
-66.026115
-46.581940
-23.879356
-0.323372
21.856712
41.013992
56.142448
66.785957
72.924706
74.823647
73.110176
68.625305
62.321648
55.097931
47.656174
40.496284
33.934814
28.273514
23.767860
20.693695
19.163750
19.082954
20.119087
21.722382
23.189079
23.770714
22.839638
19.997490
15.271713
9.082504
2.124924
-4.893326
-11.517746
-17.687515
-23.712967
-30.146805
-37.561630
-46.239960
-55.959946
-65.876083
-74.538956
-80.207077
-81.266846
-76.641235
-66.159332
-50.478226
-30.956543
-9.294250
12.791824
33.813843
52.578568
68.212585
80.139969
88.100266
92.143921
92.624069
90.191605
85.701477
80.091644
74.164551
68.479263
63.263733
58.579330
54.481506
51.117371
48.728928
47.449478
47.115784
47.194565
46.827820
45.122818
41.443695
35.573868
27.768570
18.614578
8.917404
-0.645866
-9.552925
-17.584793
-24.844177
-31.608955
-38.221169
-44.805656
-51.202866
-56.908104
-60.998482
-62.191437
-59.008575
-50.119545
-34.792191
-13.438354
12.284340
39.689323
65.740707
87.847900
104.475624
115.285065
120.897720
122.495644
121.453568
119.203903
117.003510
115.596199
114.705460
112.678497
106.659042
93.469574
71.036453
39.543488
1.919223
-36.930008
-71.732826
-98.592163
-116.110596
-125.392990
-129.144089
-130.319641
-131.056610
-132.251755
-133.886963
-135.673019
-137.539322
-139.811920
-143.016388
-147.472565
-152.894516
-158.235535
-161.813080
-161.633759
-156.005188
-143.990814
-125.705391
-102.307938
-75.631119
-47.720604
-20.355652
5.139038
27.983643
47.734055
64.138275
77.103294
86.630928
92.949654
96.569839
98.139198
98.476059
98.427246
98.721725
99.961960
102.247131
105.559219
109.972176
115.578201
122.319771
130.015106
138.334503
146.729584
154.250031
159.363800
160.377716
155.827347
144.602448
125.958160
99.870178
67.421722
31.141144
-5.054245
-37.034790
-60.663223
-72.640823
-71.778854
-59.917633
-41.332642
-21.290588
-4.352951
6.810623
10.133514
6.034271
-2.620560
-12.322510
-21.125992
-28.962112
-36.771927
-45.586823
-56.071411
-71.773682
-94.037750
-119.826385
-143.229462
-158.706940
-162.341858
-152.037689
-128.135529
-93.834045
-60.076080
-36.086060
-24.362091
-21.906616
-25.112732
-31.750580
-40.835999
-52.602203
-68.571106
-98.258667
-147.791809
-214.289825
-288.126068
-359.024536
-418.516174
-460.176514
-480.658051
-437.629608
-322.259735
-171.217560
-35.562714
59.592438
117.056564
150.308929
171.136841
185.649567
195.448074
193.701401
177.915771
154.510086
134.093216
123.212433
122.164795
127.413925
134.364517
139.672989
136.722275
123.548904
105.098740
89.217628
80.572380
79.126694
82.091858
86.186432
89.132439
86.851097
78.339302
66.869026
57.405746
52.724068
52.529243
54.852409
57.539253
59.216026
57.979828
53.616753
48.068726
44.117233
43.473801
46.189423
50.999924
55.859482
58.398346
56.088387
47.687157
33.890182
17.085739
0.132492
-14.560371
-25.600372
-32.696945
-36.399475
-37.637390
-37.249153
-35.901039
-33.939964
-31.542503
-28.765869
-25.824486
-23.101624
-21.210213
-21.157372
-23.144852
-26.946388
-31.725136
-36.332581
-39.800018
-41.902000
-43.249527
-44.869522
-47.614075
-51.471626
-55.634567
-58.973495
-60.773109
-61.140778
-60.997215
-61.566483
-63.529938
-66.594856
-69.680222
-71.616974
-71.896973
-71.021172
-70.057899
-70.010345
-71.250381
-73.274765
-74.847191
-74.762833
-71.255615
-62.982033
-49.180618
-29.842911
-5.902084
20.575428
46.792294
69.759827
86.995659
97.212250
100.230301
96.998901
88.998413
77.945923
65.396751
52.776382
41.388893
32.409401
26.923180
25.447769
27.729359
32.833603
39.208076
45.138451
49.380066
51.320999
50.857857
48.242714
43.705376
37.351715
29.472977
20.639397
11.657578
3.550787
-2.877731
-7.262373
-9.655544
-10.491495
-10.350243
-9.726173
-9.017956
-8.415157
-7.874737
-7.322395
-6.791878
-6.288551
-5.868885
-5.614941
-5.540710
-5.725899
-6.343788
-7.592674
-9.677292
-12.656975
-16.327534
-20.221138
-23.984108
-27.332184
-30.289879
-32.980240
-35.492050
-37.831123
-39.875748
-41.930832
-44.181747
-46.846680
-50.204163
-54.656303
-60.753876
-68.908768
-79.085281
-90.341919
-100.692291
-107.447502
-108.016548
-100.883118
-86.251129
-66.022430
-43.137482
-20.723663
-1.327332
13.545776
23.424683
28.434174
29.058807
25.853470
19.427963
10.514694
-0.001236
-11.102951
-21.736618
-30.852325
-37.620468
-41.504929
-42.327515
-40.245026
-35.728821
-29.408478
-21.888733
-13.644806
-4.930817
4.091766
13.222412
22.118225
30.225494
36.997131
42.240295
46.288239
50.007385
54.628113
61.298553
70.843262
83.401001
98.173706
113.556702
127.346680
137.230377
141.342285
138.734039
129.689331
115.716797
99.290070
83.314423
70.705109
63.896545
64.322327
72.195923
86.331421
104.264923
122.785583
138.652252
149.088348
152.279266
147.585968
135.390717
116.996918
94.285553
69.310699
44.203461
20.563538
-0.960785
-20.393066
-37.964081
-53.478241
-66.012207
-74.204956
-77.011078
-73.737427
-64.966003
-52.643799
-39.561096
-28.364655
-20.794434
-17.253296
-16.970154
-18.657745
-20.027222
-19.428680
-16.331299
-11.530518
-6.485748
-2.484589
-0.041534
1.188507
2.163239
5.704285
14.901062
31.942688
57.005341
87.686462
119.491302
147.263031
166.884827
169.175171
150.639282
114.616608
70.201111
27.650024
-6.691147
-31.737350
-49.451584
-62.240326
-71.613235
-77.196045
-78.808167
-77.490341
-75.184174
-73.842896
-74.353668
-76.342987
-78.681763
-80.508194
-80.753738
-79.198257
-76.514359
-73.798843
-71.977097
-71.294159
-71.251282
-71.090744
-70.403183
-68.756805
-66.318039
-63.911285
-62.835388
-64.058716
-67.383888
-70.901718
-71.491966
-66.123497
-53.122505
-33.558739
-11.151077
9.067841
22.853340
28.531624
27.339539
22.544037
17.726440
15.494240
16.854309
21.604813
28.787399
37.207603
45.596596
52.578568
56.809601
57.267075
53.643692
46.392647
36.803032
26.506340
17.058731
9.488724
4.235931
1.087219
-0.641716
-1.528580
-2.331268
-3.156197
-3.656212
-3.305931
-1.792053
0.801315
3.929070
6.811241
8.734650
9.312408
8.577034
6.933975
4.940193
3.147141
1.913300
1.434723
1.628540
2.255203
3.018867
3.771523
4.480240
5.281189
6.264343
7.467896
8.819534
10.203880
11.365074
12.049480
12.025520
11.156673
9.797421
8.258278
7.192963
7.131626
8.205185
10.057365
11.889915
12.816223
12.111256
9.590454
5.420246
0.091877
-5.806168
-11.783615
-17.414686
-22.347921
-26.408848
-29.326756
-30.768373
-30.430765
-28.123112
-23.901161
-18.261961
-12.001943
-5.996941
-1.095232
2.256412
4.182117
5.094347
5.577674
6.216306
7.333262
9.070940
11.259531
13.482582
15.185783
16.073597
16.349499
16.436787
17.078772
18.940018
22.459515
27.414661
32.771427
36.565140
37.012348
33.278988
25.759487
16.465065
8.512589
5.023018
9.121384
20.203705
34.668320
47.487625
56.232712
59.733856
58.499657
54.144928
48.472610
42.625244
36.735741
29.030640
17.576683
0.565956
-23.604630
-55.468803
-93.988052
-136.662903
-180.830566
-214.665161
-230.862244
-226.317780
-203.361206
-169.377472
-134.035736
-106.038055
-90.426453
-87.732498
-94.800430
-108.250435
-124.586060
-141.196274
-156.330078
-168.379944
-175.610413
-176.500854
-170.208252
-156.992294
-139.464386
-120.913818
-104.498581
-92.440887
-85.326424
-82.094460
-80.504761
-77.923965
-71.997711
-61.929741
-47.686909
-29.971424
-9.815212
11.832794
34.231995
56.812874
79.045662
100.148026
118.701721
133.149719
142.160629
145.127853
142.538528
135.854248
127.223129
118.925674
112.764694
109.454620
108.913666
110.353928
112.842117
115.660507
118.444595
121.050079
123.329498
124.763947
124.593079
122.123657
117.106873
109.883606
101.328156
92.256348
83.067352
73.660217
63.568756
52.516846
40.653168
28.420624
16.431549
5.120789
-5.381897
-15.248840
-24.738800
-34.248199
-43.993195
-53.978455
-63.737274
-72.104980
-77.321259
-77.690338
-72.059082
-60.314789
-43.473145
-23.283356
-1.702698
19.395813
38.527893
54.568054
66.663330
74.372803
77.759644
77.191345
73.450714
67.563812
60.613495
53.695892
47.803925
43.609131
41.438446
41.170044
42.305664
44.239655
46.390778
48.143311
49.084808
48.843414
47.274078
44.527344
41.031219
37.260193
33.656128
30.294434
26.839661
22.798096
17.715271
11.291809
3.631989
-4.975861
-14.116852
-23.309357
-32.230927
-40.825104
-49.219696
-57.774475
-66.878998
-76.535004
-86.235962
-95.039520
-101.538574
-104.221039
-101.853210
-93.772614
-80.129028
-62.061279
-41.387421
-20.355881
-1.075104
14.952927
27.091583
35.321106
40.110214
42.006531
41.587723
39.465912
36.328033
32.904800
29.880524
27.745972
26.712723
26.760818
27.638489
28.903564
30.153183
30.921844
30.993851
30.419312
29.434692
28.329056
27.229034
25.913269
23.840271
20.588013
16.033447
10.404663
4.313934
-1.729202
-7.394028
-12.638214
-17.638245
-22.737854
-28.237030
-34.442734
-41.576614
-49.597092
-58.055542
-66.116913
-72.398895
-75.322739
-73.474701
-66.027603
-53.108459
-35.880020
-16.235168
3.616348
21.672913
36.511383
47.345291
53.845749
56.112457
54.613220
50.203308
44.116241
37.711792
32.102982
27.837402
24.872452
22.850815
21.420517
20.474976
20.003052
19.939377
20.013947
19.887146
19.407768
18.665535
17.961464
17.530266
17.249046
16.575592
14.851555
11.580269
6.638504
0.356789
-6.705215
-13.945488
-20.901749
-27.325752
-33.130440
-38.354179
-43.115692
-47.694511
-52.414398
-57.569649
-63.442047
-70.100273
-77.148872
-83.592491
-87.799278
-87.863449
-82.248520
-70.364830
-52.890419
-31.549644
-8.805313
12.928520
31.753502
46.611076
57.190865
63.691071
66.644852
66.778351
64.882294
61.370583
56.508156
50.487057
43.734634
36.889523
30.678600
25.838474
23.071060
22.758087
24.268826
26.473320
28.305042
29.384800
29.926254
30.286572
30.860733
31.813595
32.996586
33.148888
30.790319
25.218279
17.128853
7.881119
-1.435022
-10.213770
-18.290966
-25.482738
-32.471184
-40.006409
-48.456303
-57.749966
-68.340446
-81.749985
-99.593483
-122.396049
-142.229462
-149.388519
-139.185318
-115.550270
-86.020676
-56.711830
-31.203302
-10.837879
4.636570
16.369654
24.717569
29.499435
30.962351
30.285629
28.952263
27.929199
27.554813
27.748989
28.459187
29.027958
28.814766
27.798538
26.500706
25.347527
24.078703
21.923098
18.342577
12.970398
5.595909
-3.876465
-14.835195
-25.874744
-34.808952
-39.160576
-36.939495
-27.681984
-13.237944
2.316963
14.423651
20.536827
21.481907
21.009371
23.520346
31.491070
43.211407
54.360367
59.758064
56.566940
45.994202
32.149574
19.507576
10.553518
5.071673
1.252697
-2.674820
-7.090870
-11.049132
-13.020666
-12.095452
-8.494222
-3.413706
1.309189
4.264833
4.900761
3.659025
1.813175
0.783831
1.570417
4.361832
8.544748
12.984137
16.528606
18.494045
18.925331
18.479694
18.099335
18.509731
20.035278
22.514702
25.708916
29.584476
34.148659
38.895676
42.474918
42.619995
37.070374
24.945923
7.579609
-11.625412
-28.524467
-40.014282
-45.140366
-45.028572
-41.851341
-37.511574
-32.843048
-27.897346
-22.651382
-17.478302
-13.270302
-11.035820
-10.773155
-11.930519
-13.547012
-14.638062
-14.470451
-12.866943
-9.958549
-6.139183
-1.800285
2.805885
7.503746
12.206741
16.670715
20.070374
21.304710
19.403023
14.146210
6.434700
-1.768616
-8.357910
-12.016632
-12.823334
-12.165588
-12.030289
-13.930664
-18.253571
-24.106827
-29.791168
-33.685776
-34.781876
-33.098450
-29.510025
-25.430847
-22.158066
-20.690094
-21.546066
-24.801712
-30.279480
-37.315811
-44.792542
-51.285294
-55.550415
-56.841835
-55.345558
-52.052757
-48.522942
-46.396156
-46.848602
-50.421104
-57.000481
-65.891701
-75.797684
-85.084549
-91.981400
-95.058067
-93.678955
-87.965874
-78.929253
-66.801064
-51.734474
-33.730347
-13.169670
9.009521
31.181995
51.274097
67.469528
78.674919
84.776215
86.339073
84.542763
80.709015
76.381416
73.234344
72.934746
76.815910
84.950050
95.521210
104.728783
107.773819
100.753288
82.361526
55.114868
24.617527
-2.335527
-20.367224
-27.354919
-24.597847
-15.611539
-4.438271
5.641480
12.747057
15.947184
15.023169
10.209538
2.197277
-7.645761
-17.877853
-27.456665
-35.800213
-42.679615
-48.009956
-51.497631
-52.960651
-52.693146
-51.477814
-50.433121
-50.280819
-50.483807
-49.479443
-45.434494
-37.249104
-25.121754
-10.447819
5.348991
21.214602
36.746944
52.209885
68.040550
84.624115
102.734001
123.893768
148.078339
175.778854
206.171738
236.160461
260.386963
272.552063
267.793549
244.999268
207.652023
162.820938
119.056595
83.067589
57.757622
42.191067
32.927158
25.960320
18.367638
8.766640
-2.857899
-15.574326
-28.265045
-39.871376
-49.301422
-55.634796
-58.477440
-58.588181
-58.167435
-60.451134
-68.435074
-83.726685
-105.537643
-130.694626
-154.673309
-173.293823
-184.316681
-188.139633
-187.379608
-185.293137
-184.192932
-184.203629
-183.120743
-177.208374
-162.769943
-137.720947
-102.666809
-60.955078
-17.767181
21.246429
51.387375
69.797546
75.932968
71.182480
58.214554
40.278137
20.463226
1.309280
-15.303482
-28.269043
-37.104889
-41.987427
-43.578918
-42.894730
-40.944595
-38.451797
-35.765091
-32.832413
-29.583435
-26.117661
-22.987244
-20.919464
-20.521561
-21.944580
-24.963516
-29.022964
-33.531403
-37.927582
-41.643280
-44.227837
-45.416786
-45.438461
-45.096748
-45.817986
-49.053871
-55.885918
-66.661705
-80.790176
-96.927582
-113.293854
-127.928085
-139.011795
-145.143723
-145.621735
-140.661102
-131.459045
-119.835907
-107.654716
-96.281479
-86.045540
-76.182709
-65.217369
-51.739342
-34.828773
-14.523567
8.122185
31.251671
52.452408
69.425446
80.355103
84.127777
80.321854
69.361130
52.513199
31.880753
10.156723
-9.798218
-25.504425
-35.163971
-38.309937
-35.830933
-29.739014
-22.574005
-16.494446
-12.677612
-11.128601
-11.040741
-10.603516
-8.723389
-5.625244
-2.799225
-2.283508
-5.366486
-12.092957
-21.568481
-32.524048
-42.082642
-47.850220
-47.998596
-41.542358
-27.947388
-6.896179
21.654419
57.075745
97.918457
144.725586
196.894165
252.279114
306.741028
355.376648
394.418030
422.377319
440.325684
451.132751
462.062866
479.547302
506.949158
543.065613
582.568542
618.357239
644.095032
656.168823
632.281372
561.376038
445.805115
302.264160
154.004395
20.027283
-90.234863
-175.397888
-238.069733
-282.239258
-308.870667
-320.014923
-319.585999
-313.049561
-305.536194
-299.886169
-296.304688
-293.306274
-289.615723
-282.501923
-270.936279
-256.001587
-240.571259
-228.164795
-221.192322
-219.583557
-220.338745
-218.273956
-206.058563
-178.742249
-136.447952
-85.278015
-35.280090
3.772766
26.243271
32.297729
26.626022
16.365662
7.045654
0.910248
-2.613495
-5.093750
-7.231720
-8.289352
-7.042343
-3.067047
2.889053
9.007889
13.181519
14.190720
12.201157
8.538589
4.982025
2.807266
2.168961
2.121986
1.127182
-1.984894
-7.376175
-13.978638
-19.950943
-23.487259
-23.682220
-20.922142
-16.570099
-12.810249
-11.269501
-12.345123
-15.154953
-17.822525
-18.227966
-14.813187
-7.084335
4.200005
17.288116
30.011337
40.319740
46.839378
49.038696
47.362015
42.718880
36.278755
29.069244
21.886398
15.346786
9.932899
6.036743
3.905655
3.599861
4.952187
7.566078
10.810196
14.033562
16.820656
18.596512
19.000336
17.867676
15.068405
10.643738
4.799294
-2.215908
-9.991726
-18.096363
-25.989243
-33.140160
-39.010815
-43.339878
-45.985336
-47.077354
-46.870045
-45.638496
-43.651779
-41.139427
-38.391529
-35.788967
-33.771538
-32.652000
-32.392097
-32.570473
-32.312756
-30.583420
-26.332741
-18.825989
-8.084549
4.998920
18.624817
30.597542
38.884521
42.392513
41.137215
36.230839
29.302887
21.766970
14.595350
8.153570
2.526722
-2.285238
-6.095055
-8.792391
-10.208628
-10.380951
-9.474257
-7.627197
-4.972336
-1.646636
2.152137
6.148522
9.917595
13.009266
14.886289
15.071085
13.414492
10.132092
5.795490
1.306096
-2.611093
-5.731840
-7.919383
-9.774256
-12.170834
-15.834352
-20.927040
-27.071753
-33.407051
-39.141857
-43.893513
-47.910931
-51.980419
-57.020977
-63.635872
-71.790970
-80.725128
-88.918945
-94.316704
-94.772285
-88.482712
-74.537170
-53.135643
-25.601215
5.836326
38.339340
69.066856
95.634384
116.404480
130.561539
137.854645
138.614700
133.553452
123.799919
110.779335
96.067261
81.269531
67.650391
56.142715
47.082420
40.458637
36.049789
33.592697
32.711040
32.928894
33.626259
33.977028
33.239151
30.808258
26.387535
20.157097
12.677032
4.690823
-3.184101
-10.617043
-17.683754
-24.621067
-31.775463
-39.356346
-47.275822
-55.138477
-62.407295
-68.670670
-73.756668
-77.824951
-81.321587
-85.217590
-90.555962
-97.713638
-105.942924
-113.286346
-117.070869
-114.595718
-103.935287
-84.675270
-58.690475
-29.451813
-0.736366
24.499138
44.436592
58.498436
67.009842
71.088440
72.121040
70.485748
65.935608
58.311485
48.139969
36.329498
23.875725
11.623970
0.371048
-9.025192
-16.895775
-23.874702
-30.435020
-36.954391
-44.732597
-56.328678
-74.645218
-101.138878
-126.807465
-140.563843
-135.781525
-114.822739
-85.256798
-54.757324
-28.704914
-9.543789
3.150465
11.809851
18.068388
22.463051
24.860800
25.343348
24.174063
21.872910
19.137720
16.593634
14.401269
11.501977
7.268688
2.870796
1.864391
8.630205
25.563906
51.785824
83.102829
113.512054
137.252533
151.518066
157.460419
159.038101
160.293167
162.603912
164.593231
163.382965
156.751511
144.255615
127.628746
109.597794
92.708321
78.139610
65.312630
53.006027
40.597794
28.541702
18.114941
10.670265
6.620995
5.007217
5.511635
6.722366
7.439095
7.232712
6.504768
6.226852
7.257454
9.891190
13.726662
17.879547
21.117432
22.647354
22.300797
20.367477
17.473724
14.230743
11.185059
8.844208
6.997772
5.446106
4.524078
4.659912
5.744797
7.391663
9.376617
12.016022
16.171387
22.276764
30.896362
43.086884
59.924805
81.814880
108.370483
138.491974
170.540497
202.586761
230.835907
252.782654
268.528107
279.940735
288.920898
296.765991
304.148499
311.296326
317.907715
317.927795
307.389465
287.146912
260.721802
230.384033
196.598694
159.348572
119.057983
76.612366
22.415100
-47.867859
-128.087402
-206.605225
-274.966858
-329.913879
-371.193420
-399.940125
-418.217529
-445.929016
-495.016357
-560.515930
-627.955261
-687.040039
-734.896484
-772.677124
-802.620667
-827.133484
-870.607910
-945.941895
-1043.669189
-1142.511108
-1228.242920
-1298.097412
-1355.044678
-1401.964233
-1299.888428
-1001.332947
-583.769714
-174.417969
153.101379
386.282776
539.471191
633.115051
687.286377
719.339111
719.993774
685.390747
628.264587
569.768066
523.666870
493.776062
479.120422
477.403595
485.713928
483.435730
458.203247
414.678711
367.796997
328.768097
301.584259
286.159271
280.838043
283.281158
280.141876
263.575256
236.730255
208.798157
185.744553
167.998215
153.067947
138.340088
122.737854
101.899506
75.447556
48.037292
25.787216
11.372314
3.541901
-0.527214
-3.157669
-5.299988
-8.798546
-14.288132
-20.940849
-27.289307
-32.260910
-35.127739
-35.119675
-31.645821
-24.835327
-16.061920
-7.588745
-1.797691
-0.111313
-2.331406
-6.780968
-11.170525
-13.604553
-13.345917
-11.197365
-8.258591
-5.689606
-3.965439
-2.640831
-0.584572
3.514854
10.487144
20.327072
31.877998
43.172760
51.739716
55.236053
52.152840
42.355957
27.350761
9.998230
-6.290764
-18.800217
-26.241447
-29.175476
-29.459351
-29.208168
-30.084358
-33.019928
-38.292336
-46.010498
-56.512566
-69.848083
-85.405952
-101.693642
-116.358192
-126.865623
-131.303436
-129.160309
-120.232101
-105.611557
-86.939400
-65.986427
-44.297928
-23.055477
-3.184502
14.640781
29.892834
42.119297
50.902542
56.249569
58.793110
59.879559
61.024670
63.259224
66.735588
70.644310
73.581047
74.080444
71.524628
66.124908
58.851295
50.751827
42.255745
33.285606
23.776491
14.209000
5.602255
-0.573168
-3.516852
-3.361885
-1.589130
-0.359065
-1.337254
-4.967648
-10.208696
-15.134104
-17.715101
-16.909443
-12.821228
-7.321358
-3.049940
-2.335760
-6.102594
-13.310902
-21.213951
-26.153160
-24.743130
-14.470425
4.716034
29.951061
55.976494
76.159576
84.256294
76.642754
53.786747
18.383625
-20.358551
-51.943005
-69.271072
-70.841919
-60.103493
-42.595871
-23.078270
-4.310577
12.634491
27.304596
38.289410
43.584248
42.258297
35.393368
25.984100
17.556366
12.872742
12.587585
15.576225
19.159279
20.428463
17.643604
10.786179
1.527832
-7.279724
-12.441193
-11.302597
-2.568077
12.589394
30.536964
46.229492
54.873581
53.842003
43.624931
27.522324
10.084038
-4.763710
-15.210228
-21.580879
-25.314247
-27.719284
-29.201706
-29.426262
-28.071548
-25.412788
-22.453072
-20.576607
-20.987114
-23.972549
-28.777985
-33.602226
-36.177788
-34.382751
-27.156738
-15.092255
-0.542496
13.312050
23.754082
29.346878
30.725220
29.838852
28.755775
28.477318
28.616745
28.120224
26.299194
23.406746
20.442360
18.482941
17.704552
17.299255
15.968887
12.676048
7.345955
0.947266
-5.056702
-9.302277
-10.984192
-10.123680
-7.649651
-4.978683
-3.764153
-5.284584
-9.839478
-16.752785
-24.508492
-31.391602
-36.299255
-38.607918
-38.292648
-35.453430
-30.185753
-22.603210
-13.108383
-2.485626
8.316513
18.403069
27.497070
35.710983
43.284966
50.388748
56.940239
62.706013
67.442291
71.300690
73.758408
74.486465
72.890839
68.514626
61.197166
51.313156
39.406898
26.326569
12.930225
0.097260
-11.095493
-19.914330
-26.064167
-29.749153
-31.722225
-32.930164
-34.059105
-35.384037
-36.821594
-37.902901
-38.268852
-37.762299
-36.300587
-34.016041
-31.172413
-28.126375
-25.459642
-23.718712
-23.082521
-23.286495
-23.620846
-23.007555
-20.644173
-16.202080
-10.013588
-3.166384
2.951975
7.097701
8.595754
7.779510
5.979941
5.142536
7.349970
14.157707
25.974783
42.040146
60.354759
78.068161
92.173676
100.299675
101.312653
95.733513
85.536499
73.507690
62.385853
53.685722
47.267803
41.289860
33.391479
21.757343
5.926361
-13.462620
-35.568531
-56.844524
-74.504684
-86.986389
-94.817505
-99.421524
-101.999969
-103.284027
-104.110550
-105.203026
-106.587921
-107.734909
-107.396530
-105.391808
-100.991821
-92.309952
-77.352417
-55.902367
-29.533699
-0.746803
27.430397
52.193710
69.011452
75.899048
75.603203
73.749146
74.789742
80.138435
88.096031
94.417786
94.060799
79.596184
47.156197
-0.773964
-57.718170
-117.469688
-174.870590
-224.670212
-261.211609
-258.214111
-205.271332
-120.754074
-36.017685
28.066105
65.716080
80.987122
82.276932
77.870888
73.211029
66.749344
56.025787
42.133869
29.185364
20.805862
18.373199
21.274593
27.547905
34.759129
38.081902
34.872574
26.789639
18.104469
12.262463
10.568089
12.628963
16.992695
21.895050
24.191101
22.115669
16.762947
10.858551
6.675169
5.115110
6.023870
8.522398
11.500774
13.181721
12.569115
10.144426
7.295872
5.204796
4.351934
4.697460
5.819345
7.261150
8.439056
9.042757
9.219713
9.118921
8.632282
7.443378
5.478191
3.149221
1.345745
0.984583
2.513279
5.712456
9.650452
13.180218
15.403564
16.118317
15.702168
14.953983
14.573917
14.936604
16.097584
17.612061
18.869705
19.470184
19.388073
18.884350
18.418816
18.038342
17.236637
15.489338
12.343674
7.704727
1.411594
-7.233574
-20.012684
-39.043152
-65.447174
-98.195816
-132.763504
-162.889450
-182.673950
-188.693756
-181.063568
-162.870850
-138.418640
-110.600578
-82.774673
-56.183376
-31.451767
-9.259483
9.586203
24.389973
34.863911
41.220253
43.829605
43.129452
39.974850
35.313545
30.170618
25.405170
21.658709
19.044434
17.280100
15.783224
13.718834
10.462662
5.353687
-2.036545
-11.066402
-19.413944
-23.216068
-18.255821
-1.980614
24.660671
56.947212
87.624504
109.599579
118.815628
115.541878
103.586487
88.120552
73.303474
60.969360
50.989746
42.500381
35.054947
29.120888
25.544258
24.777222
26.281647
28.765587
30.671921
31.111023
30.260902
29.211624
29.279976
31.178131
34.687172
38.653801
41.590553
42.431595
40.993202
38.075043
34.451958
30.828339
27.224129
23.070816
17.450333
9.696457
-0.127602
-11.264664
-22.476879
-32.433212
-40.073528
-44.963490
-47.274742
-47.743118
-47.246002
-46.485390
-45.780045
-44.810608
-42.698185
-38.261429
-30.790298
-20.110239
-7.209753
6.344854
18.663435
27.961767
33.085693
33.879562
30.922302
25.378403
18.845953
12.589653
7.454824
3.858026
1.728435
0.881178
1.301395
2.812656
5.424370
9.348213
14.625067
21.101627
28.387897
35.878811
42.753147
48.346375
51.772690
52.614178
51.050823
47.775280
43.916348
40.940075
40.032242
41.633125
45.076439
48.150368
48.518341
44.753616
36.982964
26.870132
16.760963
8.289963
1.227585
-3.008743
-5.912117
-9.987396
-17.708145
-30.707314
-49.333359
-72.310883
-96.914154
-119.197556
-134.665604
-140.029312
-133.583771
-115.766037
-89.243134
-58.221512
-27.238937
-0.274841
19.973724
32.400314
36.767136
34.074539
26.092026
14.854279
2.296600
-9.820648
-20.089493
-27.554428
-31.583282
-32.356125
-30.496140
-26.782043
-22.128342
-17.265076
-12.623352
-8.453568
-5.090958
-2.888458
-2.266205
-3.380035
-5.869263
-9.159500
-12.859344
-16.853470
-21.405487
-26.798233
-33.027924
-39.771820
-46.537506
-52.968323
-59.114990
-65.379456
-72.285370
-80.194412
-89.402725
-99.877167
-111.396606
-123.032715
-132.907196
-138.350357
-136.480515
-125.105225
-103.677658
-73.636932
-37.946930
-0.524658
34.757492
64.905426
88.056595
103.644318
112.191162
114.993301
113.567841
109.508194
103.968582
97.716080
91.211853
84.674591
78.166718
71.731812
65.592606
60.103683
56.056915
54.165543
54.753418
57.441299
60.968323
63.700745
64.323875
62.385452
58.165009
52.543755
46.293694
39.763420
32.930656
25.529106
17.444939
8.778008
-0.270172
-9.456245
-18.600876
-27.628754
-36.600342
-45.493164
-54.384193
-63.319939
-72.298943
-81.317673
-90.187111
-98.403732
-105.062279
-108.819176
-107.889847
-100.631401
-86.079437
-64.488770
-37.553574
-8.121117
20.569221
45.650597
65.275375
78.846260
86.717186
89.819565
89.132286
85.546173
79.741730
72.394928
64.243393
56.124573
48.769470
42.721497
38.291107
35.473755
34.040894
33.607849
33.832169
34.355072
34.909302
35.282394
35.268555
34.685944
33.403244
31.238693
28.000229
23.657089
18.266632
11.990036
5.137558
-1.900223
-8.865906
-15.634003
-22.301682
-29.196899
-36.785934
-45.441650
-55.404388
-66.320969
-77.254486
-86.637238
-92.483551
-92.808182
-86.309052
-72.789246
-53.296860
-30.004715
-5.500504
17.625885
37.424225
52.858154
63.707214
70.392212
73.670502
74.331757
72.925110
69.880280
65.362061
59.604828
52.980316
45.981155
39.225479
33.333664
28.736420
25.487549
23.487473
22.366058
21.514816
20.466125
18.771637
16.413513
13.654175
10.952393
8.497406
6.215179
3.561584
-0.139648
-5.298767
-11.976990
-19.855255
-28.440979
-37.325287
-46.166138
-54.702301
-62.747345
-70.302155
-77.571838
-84.946564
-92.717896
-100.530670
-107.235260
-110.969788
-109.698517
-101.981079
-87.404022
-66.707092
-41.668732
-14.689392
11.688354
35.021240
53.493408
66.035706
72.553223
73.672546
70.622742
64.731323
57.287781
49.413910
41.986572
35.699768
31.019318
28.090454
26.796265
26.898743
28.072388
29.958496
32.305695
34.744476
36.907959
38.541473
39.481903
39.735596
39.413452
38.539368
36.965332
34.380798
30.398499
24.710846
17.312286
8.455231
-1.278748
-11.150177
-20.433624
-28.718597
-36.064392
-43.004059
-50.395020
-58.996918
-69.123962
-80.400909
-91.651489
-101.136627
-106.937805
-107.437958
-101.747833
-89.818512
-72.494904
-51.320007
-28.333130
-5.662689
14.631927
30.918457
42.255249
48.395782
49.836670
47.625641
43.060333
37.307373
31.283661
25.465271
20.138763
15.599060
12.124756
9.966553
9.239929
9.886993
11.559296
13.892670
16.464355
18.846558
20.790100
21.974335
22.077637
20.927856
18.455597
14.663544
9.760284
4.081177
-1.985626
-7.863770
-13.175873
-17.795654
-21.796906
-25.603516
-29.761322
-34.754059
-40.864746
-48.179657
-56.327240
-64.641571
-71.957153
-76.684418
-77.177124
-72.120544
-61.047729
-44.561371
-24.373810
-2.688721
18.138184
35.949249
49.287628
57.360626
60.333984
59.085938
54.940857
49.278809
43.227905
37.371521
31.794373
26.494720
21.441833
16.769287
12.923584
10.213135
9.061707
9.732422
12.285339
16.347839
21.306641
26.138428
29.768433
31.505920
30.994202
28.193970
23.247192
16.367126
7.847107
-1.634766
-11.142090
-19.724731
-26.721252
-32.193054
-36.737244
-41.247437
-46.403259
-52.646790
-60.039062
-68.485107
-77.651001
-86.783997
-94.799438
-100.116577
-100.982239
-96.031372
-84.721558
-67.633911
-46.383728
-23.214111
-0.451660
19.790527
36.041321
47.572571
54.375977
56.898193
55.896973
52.198242
46.714294
40.448181
34.377014
29.241272
25.467834
23.145203
22.133484
22.267883
23.439331
25.538940
28.475342
31.923523
35.384277
38.204651
39.806824
39.837952
38.248230
35.211243
31.005371
25.864868
19.961487
13.473755
6.587708
-0.437195
-7.285095
-13.615906
-19.256836
-24.355591
-29.172729
-34.017395
-39.046143
-44.273132
-49.792908
-55.860107
-62.785950
-70.722839
-79.251587
-87.077454
-92.285400
-92.718079
-86.901245
-74.572876
-56.885437
-36.020508
-14.554077
5.340881
22.301453
35.652222
45.230530
51.029602
53.282227
52.281738
48.683044
43.488342
37.808289
32.607483
28.411072
25.308533
23.235535
22.234497
22.484436
24.049133
26.701782
29.518402
31.394135
31.419922
29.466919
26.242462
22.857361
20.231354
18.461426
16.959686
14.711151
11.060974
5.902954
-0.504883
-7.662323
-15.241486
-22.952576
-30.662354
-38.099915
-45.084778
-51.555145
-57.632416
-63.724640
-70.016174
-76.212402
-81.603790
-84.991638
-84.993530
-80.301758
-70.084229
-54.098419
-33.416504
-9.993927
13.463318
34.190918
50.207703
60.676941
65.685638
66.018433
62.863464
57.442871
51.151306
45.303436
40.826050
38.256836
37.373016
37.453094
37.705078
37.717346
37.354492
36.797668
36.161682
35.475037
34.879730
34.434052
34.076447
33.562164
32.436859
30.070587
26.145111
20.765076
14.207336
7.031433
-0.472565
-8.344513
-16.666931
-25.422882
-34.465881
-43.328522
-51.605743
-59.268097
-66.545624
-73.891602
-81.825165
-90.483185
-99.408386
-107.427521
-112.590088
-112.735596
-106.097504
-91.849243
-70.580414
-44.117767
-15.198395
13.228516
38.564880
58.989746
73.557831
82.192505
85.483673
84.391479
80.080902
73.735168
66.439575
59.093323
52.298035
46.342041
41.177032
36.697693
32.851349
29.768890
27.861389
27.572113
29.040436
31.852142
35.121460
37.642273
38.441101
37.050781
33.610168
28.771820
23.246948
17.553009
11.807343
5.907227
-0.421997
-7.252258
-14.426239
-21.545746
-28.222015
-34.215515
-39.628235
-44.763062
-50.049255
-55.975220
-63.107086
-71.746094
-81.884796
-92.922119
-103.411285
-111.261658
-114.024841
-109.805115
-98.056671
-79.660645
-56.680695
-31.597565
-6.634277
16.582336
36.893097
53.495941
65.745941
73.224792
76.186523
75.435944
71.979126
66.934296
61.071564
54.844849
48.703583
43.153107
38.716736
35.852539
34.674042
34.839478
35.868683
37.252747
38.306580
38.470947
37.219788
34.311859
29.950378
24.763580
19.563995
15.043152
11.270508
7.759064
3.819550
-1.226135
-7.772522
-15.787506
-24.848816
-34.197174
-42.815399
-49.871979
-54.970642
-58.388794
-61.184509
-64.668243
-69.781342
-76.590515
-84.089172
-90.374786
-93.302246
-91.027496
-82.438843
-67.581360
-47.513184
-24.164154
-0.053528
22.348755
41.050934
54.954010
63.807251
68.027222
68.382660
65.862854
61.383453
55.838501
50.074219
44.809875
40.700195
38.060486
36.920990
36.908264
37.481812
37.995331
37.959473
37.139740
35.657532
33.867401
32.138245
30.685883
29.316254
27.652283
25.151428
21.352448
16.091797
9.450653
1.794495
-6.409546
-14.757812
-23.033142
-31.181885
-39.262115
-47.272705
-55.251984
-63.343979
-71.646790
-80.337326
-89.168640
-97.197235
-102.740814
-103.681473
-98.042709
-84.854187
-64.720459
-39.627518
-12.502655
13.748550
36.884949
55.566940
69.251312
77.934113
82.013870
82.148804
79.320023
74.705322
69.437820
64.294250
59.661072
55.529999
51.835739
48.513397
45.701996
43.591263
42.195114
41.289764
40.433746
39.153473
37.074326
34.078232
30.095581
25.235809
19.668488
13.331848
6.302551
-1.340454
-9.267761
-16.964249
-23.843033
-29.518417
-34.066650
-37.921570
-41.881271
-46.590195
-52.477921
-59.747360
-68.414490
-78.298172
-88.849136
-99.215820
-107.892654
-113.176926
-113.285461
-106.943970
-93.820801
-74.647690
-50.961044
-25.115509
0.183487
22.582382
40.320969
52.782394
60.352280
64.104538
65.184586
64.525681
62.506180
59.295410
55.120178
50.268219
45.236191
40.576797
36.794083
34.300827
33.441910
34.253616
36.609634
40.076523
43.779709
46.686203
47.846588
46.517990
42.448990
35.953049
27.765717
19.006744
10.865036
4.014496
-1.287613
-5.356918
-8.882126
-12.472672
-16.467575
-21.021729
-26.013000
-31.204468
-36.608200
-42.233124
-48.323822
-55.103958
-62.586517
-70.396469
-77.715134
-83.187424
-85.223419
-82.535736
-74.312469
-60.614471
-42.334854
-20.945801
1.648346
23.437653
42.528885
57.395538
67.087173
71.574310
71.618225
68.480759
63.556931
57.907028
52.189362
46.639542
41.333939
36.400055
32.246277
29.272919
27.855423
28.063248
29.680420
32.213593
35.018799
37.489395
39.097000
39.519226
38.585266
36.376114
33.044083
28.873352
24.089050
18.882370
13.346786
7.332474
0.642639
-6.900269
-15.228012
-23.942719
-32.336182
-39.703812
-45.699203
-50.484146
-54.778336
-59.380142
-64.756653
-70.746048
-76.411240
-80.181793
-80.240616
-75.219772
-64.450623
-48.457687
-28.723984
-7.379684
13.181076
30.850998
44.294617
52.900192
56.788422
56.581741
53.087891
47.387634
40.560089
33.620773
27.494965
22.723312
19.457458
17.629395
17.065323
17.418427
18.518967
20.174377
22.177444
24.374237
26.496964
28.146896
29.055862
29.182709
28.493530
27.139587
25.232605
22.680099
19.393005
15.223999
10.158585
4.463226
-1.324417
-6.828720
-11.846405
-16.555420
-21.450836
-26.986740
-33.501678
-41.183807
-49.971558
-59.494781
-68.977905
-77.163086
-82.412704
-83.075012
-77.884232
-66.556244
-49.914917
-29.739502
-8.293213
12.025940
29.356842
42.422974
50.736740
54.568375
54.778580
52.362686
48.255188
43.131500
37.406784
31.565796
26.136841
21.681396
18.680130
17.382645
17.621063
19.090729
21.360886
24.026672
26.824036
29.460800
31.598297
32.883636
33.000168
31.691849
28.934631
24.850815
19.639130
13.568222
6.959625
-0.003342
-7.161026
-14.451569
-21.743683
-28.904984
-35.882904
-42.796829
-49.729813
-56.702515
-63.520279
-69.507172
-73.601562
-74.509048
-71.263046
-63.445251
-51.329987
-35.660065
-17.605438
1.264267
19.328552
34.989807
47.023849
54.547852
57.163513
55.338272
50.403046
44.072906
37.729279
32.419312
28.609207
26.018860
24.075684
21.554977
18.611221
16.680847
17.383179
21.208572
27.388916
34.223389
39.649963
42.097290
39.611511
33.203384
26.043716
20.935410
18.280319
16.386566
12.843475
5.622803
-6.234497
-25.132660
-50.345795
-78.937683
-108.829193
-140.405228
-174.547653
-210.577682
-246.097092
-277.920715
-306.638336
-330.140228
-343.194275
-340.247986
-317.438110
-272.960083
-207.646957
-126.598618
-19.911133
94.371048
184.430939
231.549698
240.947784
229.596680
212.431717
197.192612
184.966522
173.721863
158.633011
140.210770
123.672180
113.818253
111.645020
115.130936
121.323364
127.747910
132.501312
131.395279
122.543793
106.291840
83.432983
54.708542
22.215210
-9.909470
-36.833801
-55.202576
-65.757416
-70.025055
-69.087143
-63.736588
-54.904991
-43.461647
-30.341370
-17.034164
-5.497864
1.570007
3.140404
0.172211
-5.316704
-11.110771
-15.221069
-16.096550
-12.988068
-6.143280
2.819351
11.846184
19.049217
23.036774
23.123825
19.272202
12.121353
2.688591
-7.593193
-17.015770
-23.844284
-26.852989
-25.934998
-22.428246
-18.454651
-15.898209
-15.390877
-15.828392
-15.678650
-13.212730
-8.356232
-2.723671
1.324844
1.790268
-1.956062
-9.200615
-18.261497
-27.877647
-37.621269
-47.919098
-59.357605
-71.769737
-84.054649
-94.457458
-102.086014
-105.971344
-106.197922
-103.405624
-97.657700
-88.220093
-73.648308
-52.814606
-25.748219
5.766502
38.665264
69.459084
95.143387
114.008362
125.474350
129.981812
128.507584
122.602631
113.857773
103.907486
93.704834
83.440918
72.663467
60.731056
47.487213
33.863647
21.912907
13.698378
10.415800
11.325388
14.070387
15.615746
13.474279
6.600349
-4.133015
-16.490803
-27.722458
-35.021084
-36.280350
-30.126646
-16.232359
4.460321
29.622456
56.411465
82.277428
105.793747
126.819359
145.663544
162.145401
175.328522
183.458176
184.909744
179.110809
166.915054
150.147858
130.914520
110.255440
88.076385
63.894669
37.470619
9.197998
-19.712173
-47.843033
-74.418991
-96.466682
-112.502800
-122.054817
-125.450821
-123.937744
-119.484085
-114.870300
-112.972717
-116.171494
-125.451584
-140.632599
-160.199142
-181.786667
-202.880402
-221.246338
-235.162155
-243.212723
-244.654541
-239.521790
-229.115875
-215.716095
-201.908646
-190.014679
-181.737473
-177.660400
-177.146027
-178.512497
-179.075531
-176.125397
-167.381683
-151.888306
-130.525177
-105.692551
-80.494568
-57.432556
-37.712765
-21.019215
-6.114086
8.382016
23.603176
40.308891
59.414169
81.944855
108.993790
140.715851
175.997665
212.573029
247.475815
278.505035
304.938049
327.382416
347.168915
364.963226
379.745178
389.170532
390.501770
381.811432
363.135651
336.363434
304.399597
270.394836
237.233215
207.211731
182.309067
164.059479
152.973633
148.417007
148.338104
149.755386
149.881653
146.875580
139.997147
129.410217
115.470726
97.877701
76.089554
49.376179
17.454706
-19.003136
-58.530937
-99.218132
-139.119690
-176.736832
-211.363159
-242.608337
-270.377380
-294.451538
-314.367126
-329.745239
-340.296753
-345.583771
-345.105286
-338.206787
-323.900482
-301.419250
-270.754761
-232.753036
-189.363953
-143.025558
-95.884415
-49.908035
-6.946609
31.049484
61.618469
82.337128
91.632889
89.135376
76.095108
54.914490
28.375748
-0.917496
-30.632736
-58.782791
-83.365524
-102.222305
-113.375092
-115.253464
-106.995651
-88.433975
-59.958481
-22.547775
21.644089
69.094757
114.818970
153.156067
179.381332
191.058105
188.876831
176.042023
156.792603
134.291763
109.833633
82.897049
52.308441
17.757660
-19.570221
-57.043381
-91.624969
-120.984207
-143.891785
-160.074371
-169.577576
-172.420273
-168.524750
-157.938080
-141.032196
-118.802574
-93.026634
-65.944389
-40.083580
-17.922752
-1.679321
7.188744
8.198792
1.927490
-10.318962
-26.962273
-46.226173
-66.251022
-84.792297
-99.112549
-106.201660
-103.574776
-90.202118
-66.984268
-36.695419
-3.277081
29.030437
56.686672
77.477463
90.566689
96.416855
96.287079
91.815193
84.652550
76.091446
66.830460
57.208778
47.340103
37.014786
25.869408
13.378014
-1.089325
-18.112854
-38.099335
-61.057846
-86.361267
-112.629333
-137.905731
-159.670578
-175.093536
-181.462585
-176.622345
-159.509354
-130.663895
-92.471069
-48.768875
-4.360107
36.140320
69.144592
92.424377
105.189056
107.581604
100.240967
84.235748
61.339996
34.087067
5.942017
-19.469177
-39.291840
-51.919617
-57.331543
-56.503418
-50.650208
-40.756836
-27.593231
-12.122742
3.996704
18.390167
28.647156
32.844788
30.247498
21.463989
7.973206
-8.274231
-25.314514
-41.560669
-56.092834
-68.544128
-79.306335
-89.472290
-100.264099
-113.029053
-128.654053
-147.083496
-167.121643
-186.398499
-201.737122
-209.921753
-208.738708
-197.266724
-176.490662
-148.796509
-117.280579
-84.509583
-51.733398
-18.859558
15.011719
50.043030
85.231506
117.617554
142.994995
157.549194
159.602173
150.743164
135.234741
118.651611
105.530518
99.387451
101.166504
109.589600
122.585938
138.433716
156.595703
177.520386
201.828003
229.659790
262.811035
301.920898
345.319580
388.910645
427.042114
454.407837
468.074463
468.007568
456.497070
440.910400
427.905762
420.871094
419.349731
420.270630
420.484741
418.477051
414.306030
409.140137
409.980713
423.470703
452.943848
496.463989
546.673096
593.382935
627.265991
642.647888
607.723145
507.942078
348.951233
156.964417
-34.058655
-198.854248
-327.774597
-422.558899
-489.232605
-533.754944
-555.794495
-555.908203
-537.945801
-509.494019
-479.528503
-454.927795
-438.306335
-428.444824
-422.329956
-413.175995
-396.393860
-371.298279
-341.248016
-311.640808
-287.029541
-269.379791
-258.385681
-252.654663
-248.016083
-240.545044
-227.182251
-206.277405
-177.811783
-143.357666
-106.114319
-70.602158
-41.607590
-21.285828
-9.369614
-3.407227
-0.176422
3.006454
7.670670
14.240845
22.567184
32.253799
43.138229
54.380707
64.227417
70.160431
69.785622
61.830139
46.719131
26.620056
4.751022
-15.448341
-31.152512
-40.678169
-43.864014
-41.938515
-37.079758
-31.528282
-26.892883
-23.659027
-21.183205
-18.728348
-15.726601
-12.288612
-9.125854
-6.985825
-6.142151
-6.238022
-6.576523
-6.570534
-6.090782
-5.379326
-4.883133
-5.052483
-6.181740
-8.392624
-11.728790
-15.951851
-20.575272
-24.807884
-27.740227
-28.605804
-27.156525
-23.656151
-18.666565
-12.528656
-5.151985
4.121368
15.839043
30.108128
45.970081
61.492416
74.336868
82.451927
84.786362
81.337143
73.333344
61.642921
47.395927
31.748596
16.024994
1.854897
-9.123280
-15.618156
-17.423855
-15.290619
-10.914726
-6.130192
-2.382416
-0.449966
-0.586227
-2.532459
-5.846664
-10.102226
-14.818626
-19.725872
-24.986145
-31.044514
-38.516914
-47.462189
-57.117165
-65.777908
-71.402397
-72.128685
-66.845901
-55.824715
-40.259838
-22.386496
-4.456339
11.581021
24.606977
34.383797
41.421516
46.548058
49.979637
51.649017
50.796120
46.894035
39.888130
30.707443
20.888857
12.334450
6.628624
4.279816
5.049088
7.855034
11.424770
14.864986
18.021503
21.286892
25.389385
30.779652
37.000801
43.000481
47.438889
49.138588
47.506836
42.428001
34.056816
22.324142
8.557800
-6.325783
-21.648010
-37.096191
-52.869522
-69.521477
-87.606941
-107.155907
-127.408913
-146.728516
-163.549622
-176.450134
-184.598602
-187.548553
-185.079056
-176.856903
-162.503784
-141.809738
-114.907402
-82.519905
-45.490730
-4.777756
38.363487
81.704254
121.674629
153.378296
171.617371
172.782593
156.261414
125.594276
87.669098
50.667824
21.663422
4.831825
0.893867
8.131882
24.013626
46.326378
73.980682
106.419006
142.558044
179.780792
213.593674
238.379883
248.959778
242.260132
218.205963
179.635895
131.174286
77.809952
23.585693
-28.813118
-77.572769
-121.076187
-157.263306
-183.800690
-198.586945
-200.531677
-190.022736
-168.759933
-139.510056
-105.497787
-70.209122
-37.238586
-10.239563
7.472641
13.396027
6.636475
-11.454315
-37.404327
-66.256287
-92.517487
-111.365845
-119.583771
-116.010574
-101.474899
-78.193100
-48.957184
-16.209290
18.387741
53.976410
89.761261
124.138229
154.022964
175.377472
184.633331
180.251862
163.731018
139.393799
112.655289
88.014435
67.685135
51.296051
36.902054
22.228470
5.957535
-12.068314
-30.898468
-49.166763
-65.389557
-78.265045
-86.675674
-89.903793
-87.926117
-81.413956
-71.966095
-61.757477
-52.784439
-46.388184
-42.915314
-41.856232
-42.601624
-44.854919
-48.697357
-54.368164
-61.687958
-69.454407
-75.675751
-78.219574
-75.508820
-67.091858
-53.729767
-36.940948
-18.605347
-0.448517
16.652100
32.745270
48.876038
66.497955
86.614319
108.677063
130.282349
147.585999
156.571960
154.589447
141.181335
118.270752
89.013062
56.599762
23.158661
-10.421570
-44.190033
-78.238068
-112.027527
-144.147034
-172.384125
-194.363159
-208.200684
-213.149384
-209.263306
-197.341278
-178.170319
-152.211151
-119.717285
-81.392761
-39.227814
2.950348
39.715118
65.468018
75.947266
69.807037
49.058105
18.507721
-15.524506
-46.726013
-69.903809
-81.781342
-81.174927
-68.818634
-46.983765
-18.792999
12.377625
43.625610
72.970459
99.550415
123.224609
144.165527
162.352051
177.140442
187.660095
192.848740
192.196259
186.054260
175.697754
162.951904
149.600067
136.911346
125.278259
114.494781
103.951904
92.970520
80.800903
66.633972
49.825745
30.059052
7.934784
-15.008392
-36.424011
-53.966339
-66.163513
-72.941193
-75.635071
-76.394714
-77.224945
-79.277374
-82.672791
-86.540558
-89.789276
-91.703339
-92.188904
-91.784943
-91.184753
-90.562775
-89.290405
-86.140442
-79.646698
-68.662079
-52.758789
-32.239410
-7.840790
19.503693
48.982391
79.739777
110.721527
140.426392
166.958313
188.107849
201.856140
206.853851
202.788422
190.701385
172.611389
150.938568
127.714020
103.815552
78.689453
50.877136
18.800934
-18.380981
-60.192444
-104.969543
-150.337677
-193.702850
-232.773865
-265.762115
-291.256561
-308.124207
-315.716980
-313.815582
-302.665344
-282.978180
-255.544556
-221.180450
-180.631836
-134.728333
-84.389893
-30.885620
24.304688
79.326965
131.800659
178.808472
216.969666
243.105896
254.863892
251.702209
235.130005
208.635132
176.708923
143.651001
112.737305
85.816040
63.170166
43.721741
25.516602
6.013916
-16.894043
-44.211304
-75.260132
-107.566284
-137.393311
-160.919922
-175.367493
-179.591736
-174.296082
-161.074097
-141.838074
-118.132019
-90.959839
-61.059509
-29.191650
3.523193
35.612000
65.169128
90.153687
108.607727
118.776733
119.335205
109.510132
89.506653
61.032227
27.485535
-6.403503
-35.372192
-55.052795
-63.351379
-61.074280
-51.837341
-40.580139
-32.076660
-29.552307
-34.335754
-45.874207
-62.484009
-81.963684
-101.805023
-119.463654
-132.257874
-137.898407
-134.769226
-122.333618
-101.120270
-72.587494
-38.815918
-2.156799
35.010284
70.349091
101.555298
126.407776
142.959991
149.748474
146.034210
132.284119
110.460175
83.757996
56.228455
31.822083
13.431732
2.362030
-2.023041
-1.681183
0.899353
3.757294
5.708527
6.747955
7.728821
9.892517
14.301422
21.592499
31.855621
44.655518
59.194000
74.112305
87.803101
98.505859
104.709320
105.543121
101.047302
92.139526
80.220917
66.692657
52.507141
38.206268
23.985565
9.847656
-4.048218
-17.485535
-30.170471
-41.585663
-51.020630
-57.465637
-59.816528
-57.174500
-49.235260
-36.276550
-19.306549
0.204651
20.613220
40.397156
58.170105
73.033081
84.571838
92.942688
98.701111
102.270691
103.652893
101.929382
95.561646
82.927917
63.164978
36.811768
5.971252
-26.018494
-55.523926
-79.387817
-95.669067
-103.682861
-103.827759
-96.934326
-84.046326
-66.153809
-44.281738
-19.536194
6.934937
33.951721
60.236816
84.166443
103.508423
115.320740
116.798340
106.203491
84.022888
53.379700
19.250977
-13.155640
-40.224060
-61.105835
-77.400024
-91.922852
-107.205872
-124.156921
-141.999878
-158.745728
-172.309448
-181.128967
-184.554077
-182.287231
-173.862549
-158.362610
-134.785156
-102.722046
-63.403137
-20.174988
21.699951
56.043030
77.230774
81.615417
68.210632
38.827576
-2.484924
-50.390137
-98.899414
-142.401245
-176.308044
-197.498291
-204.666687
-198.256165
-179.995239
-152.357727
-118.032898
-79.310059
-38.020203
4.311829
45.931335
84.543091
117.187927
140.848877
153.335876
154.027893
144.294495
127.213074
106.666809
86.376831
69.156616
56.587830
49.123230
46.313293
47.048035
49.791504
52.737305
54.106201
52.249939
46.269958
36.373230
23.755798
9.997437
-3.386353
-15.457458
-26.267456
-36.726501
-48.360168
-62.431030
-79.233093
-98.121399
-117.829773
-136.871948
-153.742615
-166.899048
-174.724976
-176.035828
-169.474426
-153.841553
-128.556946
-94.302063
-52.926270
-6.934631
40.856567
87.750061
130.131470
165.605042
193.651978
214.934692
229.903076
238.284424
239.295715
231.825195
214.839661
185.404724
142.923950
90.544342
33.633850
-22.892548
-75.431763
-121.431000
-159.315735
-188.490295
-213.058929
-235.220764
-253.100800
-263.083801
-263.440643
-255.145996
-240.580841
-222.494110
-203.188568
-189.478485
-184.886963
-187.502594
-193.053650
-198.791077
-203.183319
-203.885712
-197.576355
-149.885406
-54.282166
61.313477
159.195526
220.959778
248.583740
253.195862
246.617218
237.014771
228.074783
215.025314
194.904755
170.837509
149.202393
134.364868
127.106216
125.787094
127.664520
129.937805
126.704529
115.603256
99.693916
84.476830
73.694298
68.198212
66.998619
68.239136
70.018692
68.417740
61.756416
51.808449
41.991653
34.796368
31.012936
30.275612
31.603657
33.754238
34.415401
32.322487
28.052811
23.244789
19.401562
17.358536
17.410225
19.296783
22.273968
24.896275
26.073174
25.591640
23.948666
22.006023
20.554844
20.201344
21.277519
23.911232
28.045921
33.231743
38.178078
40.720970
38.448456
29.755619
15.025146
-3.008667
-20.103607
-32.448311
-37.854034
-36.873360
-32.080772
-26.448364
-21.866592
-18.529030
-15.424110
-11.557587
-6.792770
-2.023224
1.245766
1.649689
-1.570824
-8.404793
-18.151489
-29.446930
-40.670265
-50.176903
-56.615189
-59.368446
-58.646790
-55.237450
-50.263771
-44.816574
-39.785805
-36.028000
-34.139702
-34.568108
-37.212158
-41.531914
-46.650162
-51.881943
-57.188896
-63.009041
-69.928482
-77.682266
-85.199570
-89.980835
-89.548553
-82.566994
-69.226875
-51.286766
-31.083031
-10.752857
8.536285
26.479599
42.976940
57.596664
69.314598
76.969162
79.928116
78.620895
74.379440
69.027016
64.108414
60.282936
57.161224
53.749985
49.094093
42.714630
34.945309
26.564768
18.686449
12.395114
8.369438
6.748667
7.035100
8.276329
9.294203
9.128332
7.427063
4.477392
1.119246
-1.808618
-3.792663
-4.886272
-5.636957
-6.583671
-8.108894
-10.075851
-11.929014
-12.752295
-11.651127
-7.740084
-0.616829
9.357025
20.819609
31.439753
38.353020
39.107666
32.606026
19.593435
2.888388
-13.537626
-25.753096
-30.951487
-28.015001
-17.635839
-1.524721
18.367628
39.769543
60.426064
78.263939
91.511124
98.877716
99.896400
94.731087
84.111984
68.816483
49.436569
26.512653
0.832142
-26.255527
-52.748058
-76.284210
-94.736252
-106.740173
-111.991776
-111.031563
-104.736397
-94.021866
-79.737534
-62.844074
-44.829979
-27.746542
-13.958065
-5.709625
-4.382477
-9.840748
-20.314545
-32.716248
-43.465046
-49.550301
-49.403973
-43.158478
-32.261505
-18.870117
-4.916553
8.284061
20.012810
29.781891
37.088089
41.344975
42.229790
39.934818
35.049225
28.419140
20.854134
12.891891
4.840775
-3.130363
-10.788780
-17.714500
-23.490311
-27.822845
-30.463493
-31.082512
-29.183136
-24.205521
-15.957352
-4.928871
7.939484
21.071785
32.794151
41.704514
47.447197
50.622719
52.747597
55.544739
60.177864
67.093147
75.223633
82.200531
84.827621
80.617950
68.761955
50.569000
29.199417
8.817749
-5.772873
-10.931648
-5.515724
8.347908
25.733597
40.229248
45.997459
39.786934
19.536072
-10.950180
-42.996185
-66.706978
-76.183899
-71.855141
-58.619232
-42.195168
-26.396400
-12.756516
-0.944389
9.103043
16.579155
20.202530
19.374023
14.760994
8.041779
1.284485
-4.034859
-6.993866
-7.692856
-7.127403
-6.640602
-7.223846
-9.201569
-12.294090
-15.926254
-19.605507
-22.679886
-24.745750
-25.694504
-25.868271
-25.692001
-25.599701
-25.885201
-26.648193
-27.976234
-29.970688
-33.005951
-37.302437
-42.260925
-45.846390
-44.865852
-36.239464
-18.854324
5.226570
31.093613
52.779549
65.784416
68.754448
63.611313
54.108635
43.773834
34.547234
26.694679
19.749947
13.621521
8.973099
6.820999
7.606682
10.735878
14.705193
17.819611
18.739494
17.440880
14.434387
10.986137
8.391464
7.312462
7.601440
8.337692
8.362427
6.848343
3.790680
-0.028076
-3.349396
-5.107048
-4.995911
-3.503914
-1.641350
-0.327431
0.087601
-0.184654
-0.630035
-0.802803
-0.378853
0.779625
3.001511
6.958153
13.310127
22.354851
33.636749
45.743446
56.621910
64.591270
68.060020
66.507286
60.449600
50.813232
38.702312
25.144012
11.014141
-2.899704
-15.735367
-26.692299
-35.065502
-40.432625
-42.877026
-42.975105
-41.480492
-39.052811
-36.198933
-33.147682
-30.072086
-27.078831
-24.407013
-22.322081
-21.072329
-20.726416
-21.102600
-21.968712
-22.940331
-23.815859
-24.444874
-24.652922
-24.345425
-23.540966
-22.277742
-20.822447
-19.609146
-18.953495
-19.163599
-20.099369
-21.103565
-21.099262
-19.052423
-14.219805
-6.753610
2.327108
11.621043
19.476007
24.727137
26.828465
25.878107
22.363617
17.082718
10.907895
4.584652
-1.224785
-6.207412
-10.285785
-13.516312
-15.977978
-17.470240
-17.727850
-16.481817
-13.803416
-10.032234
-5.742064
-1.731167
1.402273
3.288942
3.964912
3.592646
2.324045
0.144369
-2.999222
-7.255524
-12.604660
-18.683825
-25.005651
-31.047249
-36.474678
-41.252594
-45.664337
-50.171356
-55.235428
-61.144314
-67.846779
-75.022446
-81.875732
-87.235855
-89.463478
-86.630333
-77.153702
-60.440155
-37.466869
-10.638336
16.755890
41.700317
62.218872
77.561752
87.977020
94.028290
96.087875
94.260567
88.777229
80.258057
70.036949
59.763565
50.806503
43.987114
39.394539
36.503922
34.627075
33.224953
31.989639
30.954422
30.152634
29.381104
28.218025
25.974136
21.974052
15.868652
7.820122
-1.534286
-11.148033
-20.090553
-27.766159
-34.075218
-39.483070
-44.779770
-50.699867
-57.729500
-65.934395
-74.829239
-83.516541
-90.656921
-94.644424
-93.912796
-87.151749
-73.755020
-54.192337
-29.994858
-3.520020
22.504410
45.772247
64.738373
78.624481
87.418350
91.427795
91.061188
86.886551
79.730453
70.724579
61.270859
52.650146
45.678772
40.690765
37.487656
35.563965
34.361282
33.493546
32.739120
32.126373
31.709808
31.459091
31.227524
30.570343
28.888138
25.601898
20.367310
13.253296
4.765762
-4.353226
-13.330536
-21.606369
-29.051117
-35.918137
-42.658813
-49.778076
-57.459366
-65.381760
-72.545578
-77.427292
-78.383484
-74.102036
-64.101852
-48.942078
-30.154709
-9.901031
9.553497
26.346756
39.340790
48.055634
52.599014
53.369781
50.956406
46.121704
39.808731
33.153641
27.303345
23.127274
21.013840
20.846588
22.163956
24.427643
27.278870
30.445145
33.634109
36.474182
38.384399
38.767014
37.248962
33.719933
28.386528
21.799736
14.451286
6.830116
-0.636726
-7.639000
-14.051147
-19.911034
-25.548340
-31.610893
-38.752411
-47.416634
-57.371368
-67.555840
-76.148705
-81.039833
-80.399918
-73.325249
-60.191101
-42.501617
-22.366096
-1.896400
17.228912
33.849731
47.250702
57.031326
62.940849
64.973732
63.483635
59.307106
53.566925
47.465660
41.862114
37.286331
33.838753
31.395271
29.726898
28.617531
27.952324
27.541519
27.219604
26.729240
25.779392
24.134628
21.717854
18.541626
14.701935
10.340454
5.483929
0.255363
-5.160168
-10.588676
-15.807045
-20.777386
-25.666725
-30.891411
-36.898258
-44.170822
-52.694801
-61.931580
-70.683647
-77.157982
-79.436981
-75.888672
-65.988426
-50.273823
-30.576500
-9.369017
10.917116
28.349319
41.878712
51.087593
56.199017
57.543678
55.741352
51.545319
45.849262
39.542645
33.269585
27.518547
22.490503
18.424545
15.567547
14.157665
14.341904
16.092575
19.152473
22.897861
26.777611
30.124222
32.378002
32.938667
31.288040
27.082508
20.241806
11.314384
1.019753
-9.627983
-19.746208
-28.734589
-36.426590
-42.923645
-48.564903
-53.885071
-59.233673
-65.022659
-71.349739
-77.880692
-83.812134
-87.822266
-88.406487
-84.346100
-75.081589
-60.936104
-43.239944
-23.893990
-5.013184
11.567375
24.786598
34.306618
40.320976
43.325401
43.920456
42.621429
39.993546
36.708466
33.286957
30.331955
28.277618
27.280319
27.282135
28.123352
29.516083
31.190125
32.943924
34.473694
35.510376
35.708893
34.587906
31.781204
27.146774
20.857834
13.497330
5.854706
-1.371552
-7.674515
-13.007996
-17.618576
-21.770523
-25.629196
-29.163467
-32.203079
-34.689896
-36.813782
-39.027023
-41.936462
-46.134583
-51.761002
-58.391998
-65.003006
-70.022110
-71.865204
-69.335251
-61.940857
-49.955704
-34.385925
-16.678909
1.530914
18.594254
33.081680
43.959946
50.691757
53.403610
52.798325
49.907272
45.840469
41.509903
37.628021
34.642517
32.780579
31.970367
31.967667
32.394669
32.903076
33.240555
33.417206
33.513092
33.603485
33.706985
33.554916
32.856628
31.283890
28.652740
25.032959
20.826111
16.508026
12.434021
8.786163
5.290771
1.472992
-3.023376
-8.260040
-13.790802
-18.905090
-23.014832
-25.981110
-28.160736
-30.339661
-33.420380
-38.118073
-44.787567
-53.205475
-62.539642
-71.412323
-78.169617
-81.104248
-79.144714
-71.881073
-59.794373
-44.152618
-26.480194
-8.421631
8.558929
23.230865
34.749420
42.472412
46.314575
46.485992
43.310150
37.422821
29.638824
21.061768
12.924286
6.413330
2.136444
0.097961
-0.244629
0.277954
1.067200
1.795868
2.472260
3.191010
4.018127
4.791870
5.192810
4.928436
3.769623
1.762421
-0.955688
-4.006653
-6.844116
-9.048859
-10.535950
-11.594208
-12.712463
-14.365051
-16.621857
-19.325714
-22.065765
-24.495941
-26.586273
-28.560303
-30.788544
-33.560333
-37.138916
-41.555908
-46.773071
-52.517670
-58.232117
-63.030640
-65.716797
-64.968048
-59.674683
-49.352295
-34.368805
-15.984070
3.850830
22.937256
39.421417
52.062836
60.396088
64.566986
65.131378
62.677582
57.865234
51.452148
44.287933
37.441711
31.885986
28.289368
26.829437
27.331207
29.290405
32.106812
35.142548
37.748596
39.404114
39.668518
38.316956
35.379761
31.097626
25.773376
19.764557
13.367462
6.863068
0.650787
-4.789246
-9.054932
-11.895721
-13.544434
-14.635712
-16.010956
-18.496399
-22.598663
-28.219238
-34.619598
-40.902313
-46.021118
-49.579254
-51.764160
-53.208588
-54.738190
-56.861847
-59.675049
-62.890808
-65.991302
-68.084534
-68.207367
-65.252228
-58.241089
-46.888184
-31.767883
-14.416840
3.039917
18.549316
30.825043
39.342957
44.294403
46.195007
45.542908
42.955017
39.084991
34.693909
30.472778
26.911926
24.108002
21.908966
20.177643
18.653900
17.305634
16.077026
14.947510
13.976654
13.155334
12.471741
11.830811
11.063080
9.820496
7.886993
5.168060
1.738861
-2.084045
-5.972565
-9.662476
-12.885284
-15.551208
-17.733032
-19.530609
-21.265686
-23.114532
-25.004700
-26.688324
-27.952606
-28.784149
-29.413605
-30.271484
-31.842865
-34.656128
-38.932556
-44.342590
-50.063782
-54.896515
-57.610077
-57.164368
-53.013306
-45.213501
-34.769043
-22.912384
-10.465973
2.123962
14.569611
26.337860
36.720673
44.963684
50.610474
52.302429
49.432861
42.842133
34.455719
26.168945
19.309052
14.516602
12.056580
11.972321
11.577209
8.627686
3.204926
-2.608643
-6.710144
-8.086029
-6.818695
-3.502075
1.066101
2.211945
-3.572845
-15.933167
-31.234070
-45.920593
-58.440216
-68.871307
-77.891388
-86.117004
-98.765625
-119.620361
-148.181213
-180.839478
-215.167892
-251.596344
-291.742737
-336.181946
-352.139038
-318.512360
-241.526550
-148.633011
-62.978363
6.290405
58.773254
97.132309
124.663422
144.086380
152.663589
148.760086
134.924866
117.546333
102.469299
92.603188
88.545425
89.486465
93.538139
94.447479
87.349236
71.448105
51.073174
33.088013
22.823071
23.919334
36.611839
57.206417
76.664116
87.041534
84.370483
70.800499
52.093407
34.533165
23.041351
19.703949
23.995529
32.228134
41.045326
47.166122
48.325378
42.862427
30.089218
11.167557
-10.891769
-31.369995
-51.774155
-68.707291
-79.342560
-82.158096
-77.535645
-67.006790
-52.417465
-35.351822
-16.454437
4.456909
29.002655
57.808929
90.419708
124.855255
158.069107
186.678406
207.605301
219.144897
221.062073
215.254898
204.004578
189.653320
174.358185
159.711945
146.705765
135.601395
126.189636
117.793289
110.143982
102.663895
95.040649
87.559341
80.789398
75.400589
71.823563
70.111679
69.742645
70.115219
70.082092
68.876495
66.568863
63.607025
60.516472
57.575920
55.048347
52.880089
50.803688
47.508240
41.958214
33.897652
23.079937
8.932205
-9.429604
-32.485184
-60.112282
-91.409225
-125.763062
-160.895355
-192.559128
-216.473587
-229.722824
-231.475510
-222.826965
-206.349060
-185.335831
-164.412552
-145.953491
-129.282654
-112.939110
-96.329597
-80.247185
-66.614182
-57.846626
-45.059921
-27.479225
-11.322693
-1.499313
2.054466
1.762238
-0.622238
-4.656731
-10.478394
-17.839363
-27.132378
-37.271713
-45.009895
-48.436424
-47.993706
-45.878197
-44.576553
-45.816277
-49.894691
-56.825233
-67.354568
-75.984245
-78.969925
-75.297249
-66.387444
-54.943222
-44.145813
-36.641685
-34.862564
-39.104446
-45.587791
-49.372116
-45.454216
-30.059029
-1.823647
37.337234
82.565849
126.803474
157.529709
168.448761
160.734161
140.713882
115.789230
91.378799
69.795364
51.197071
35.098579
21.561760
12.465656
8.797867
9.769119
13.128056
16.321739
17.359737
15.701824
12.051689
7.753246
4.957384
4.677860
6.557312
9.291954
11.476887
12.255642
11.653778
10.285114
8.929131
8.583702
9.505379
11.242825
13.052612
14.298512
14.800209
14.869644
14.916656
15.427372
16.935776
19.635609
23.043354
25.956100
26.814274
24.333569
18.304913
9.914219
1.516048
-4.367023
-6.293251
-4.645199
-1.425293
0.945431
0.806458
-1.912209
-6.097809
-10.115204
-12.899376
-14.292587
-14.867607
-15.329239
-16.062737
-17.153496
-18.044449
-18.229782
-17.350548
-15.427933
-12.750854
-9.861191
-7.407410
-5.842201
-5.248367
-5.276917
-5.415031
-5.269417
-4.882347
-4.661011
-5.225639
-6.934334
-9.648445
-12.799507
-15.671913
-17.815094
-19.187691
-20.082687
-20.859642
-21.675461
-22.615593
-23.644440
-24.930458
-26.759369
-29.410080
-32.768745
-36.197884
-38.607742
-38.890785
-36.362503
-31.142006
-24.164398
-17.115318
-11.780396
-9.642174
-11.522118
-17.430511
-26.748466
-38.354286
-50.888901
-62.882187
-73.122971
-80.548401
-84.677017
-84.877823
-80.718864
-72.236031
-59.784039
-44.138451
-26.299171
-7.599163
10.643730
27.287251
41.358490
52.300785
59.833042
63.797886
64.505783
62.580917
58.939644
54.589302
50.498337
46.915123
43.813591
40.827019
37.398125
33.538712
29.397793
25.186459
21.086245
17.240118
13.527370
10.050507
7.021453
4.551470
2.986008
2.530359
3.370140
5.915039
10.643587
17.581331
26.309696
35.723930
44.200500
50.388367
53.202354
52.072887
47.001656
38.384758
26.952026
14.020374
1.302479
-9.519844
-16.966309
-20.693604
-21.490265
-20.774700
-20.106266
-20.337749
-21.252316
-22.010719
-21.661743
-19.295853
-14.710972
-8.781334
-3.184284
-0.240063
-2.803173
-12.546879
-29.278587
-50.818672
-71.938690
-86.145668
-88.454025
-77.717438
-56.953598
-31.536598
-6.501591
15.158821
32.551811
46.040337
55.877831
61.612606
62.578312
58.709167
51.007530
41.439499
32.368752
25.627625
21.956619
20.768982
20.380234
18.881912
15.048302
8.809715
1.282860
-5.764023
-10.822548
-13.180367
-13.271385
-12.412987
-12.122894
-13.460503
-16.710197
-21.599709
-27.571312
-33.858696
-39.237038
-41.796730
-39.305359
-30.118088
-14.369629
5.447540
25.152176
40.521500
49.046310
50.756294
47.825241
42.963860
38.010292
33.317802
28.318481
22.505135
16.150116
10.170059
5.565430
2.753593
1.465660
0.914474
0.417328
-0.274078
-0.764862
-0.171051
2.426346
7.772125
15.365456
23.851562
31.334068
36.051796
37.060150
34.566727
29.783211
24.197365
18.872551
14.150566
9.722992
5.128555
0.214882
-4.820702
-9.223480
-12.087418
-12.665749
-10.757004
-6.718407
-1.529457
3.590927
7.650215
10.042572
10.812325
10.478027
9.433739
8.068275
6.660767
5.537903
5.015038
5.557297
7.378746
10.410248
14.322319
18.577446
22.509377
25.559822
27.165848
26.580505
23.526840
18.148510
11.217262
3.901520
-2.481617
-6.897305
-8.761101
-8.195953
-5.807640
-2.596973
0.041882
0.957581
-0.614555
-4.799427
-10.950760
-17.840054
-24.316010
-29.453590
-32.736950
-34.234150
-34.064224
-32.426270
-29.526224
-25.506588
-20.501036
-14.894857
-9.186832
-3.861401
0.426957
3.301856
4.508188
4.191197
2.705817
0.601042
-1.677348
-3.978326
-6.086279
-8.189052
-10.322553
-12.628179
-14.979956
-17.207312
-19.083935
-20.531986
-21.603571
-22.101667
-22.303585
-22.385754
-22.520514
-22.706894
-22.558363
-21.347046
-18.292076
-12.769163
-4.226652
7.072095
20.380257
34.479450
47.774174
58.980713
67.342453
72.772354
73.521194
69.205795
60.109360
47.258072
32.069054
15.569740
-1.267813
-17.365871
-31.667913
-43.334034
-51.492714
-55.849373
-56.384605
-53.388634
-48.214794
-42.316193
-36.539963
-31.066093
-25.647287
-19.633430
-13.307931
-7.527953
-3.629738
-3.783237
-9.346230
-20.073572
-34.254555
-49.839355
-65.364609
-81.448586
-99.565697
-115.477028
-124.949249
