1428497533.000000
64.000000
-0.000000
-0.000000
-0.000000
-0.000000
-0.000000
-0.000000
-0.000000
-0.000000
-0.000000
-0.000279
0.007716
0.014464
0.011727
-0.006775
-0.037479
-0.062203
-0.051566
0.023042
0.174579
0.401210
0.663571
0.919243
1.140890
1.333552
1.535481
1.800470
2.170534
2.653170
3.238924
3.850381
4.414581
4.885897
5.271771
5.634839
6.066684
6.643608
7.383837
8.295374
9.216640
9.993443
10.530404
10.861671
11.167687
11.712704
12.726110
14.283541
16.388559
18.655670
20.703646
22.292194
23.484863
24.674820
26.432041
29.234819
33.216591
38.283653
43.654621
48.561676
52.533318
55.672344
58.668533
62.499973
67.958229
75.229576
84.043015
93.145950
101.325874
107.868958
112.936081
117.534485
123.050430
130.619385
138.920486
149.191238
161.268387
174.714691
188.009186
198.102982
200.948029
193.048630
173.278900
143.734528
109.151154
73.863281
39.961502
6.276520
-30.524200
-73.516418
-123.416290
-178.061401
-233.657013
-286.523499
-335.015228
-379.036621
-418.866882
-453.860474
-481.974792
-500.452179
-506.935455
-500.511749
-481.768951
-452.689270
-415.849976
-373.466644
-327.199951
-278.157990
-227.211029
-175.379242
-124.074463
-74.952332
-29.778259
10.104187
44.079849
72.280762
95.396271
114.312668
129.774384
142.178757
151.633255
158.058838
161.454376
162.075592
160.418320
157.124786
152.813171
147.936844
142.716736
137.188187
131.297409
125.009674
118.383568
111.567322
104.740662
98.065369
91.636368
85.473801
79.556740
73.851898
68.347130
63.047989
57.986015
53.186798
48.668144
44.440441
40.500893
36.841736
33.464664
30.377571
27.572645
25.062378
22.848156
20.933990
19.322395
18.010275
16.990877
16.260267
15.813005
15.601509
15.627445
15.872478
16.322371
16.961206
17.777109
18.756802
19.887383
21.179493
22.553617
24.023703
25.581455
27.213123
28.935022
30.744953
32.647350
34.628323
36.705898
38.726570
40.625412
42.259075
43.423798
43.845371
43.237053
41.302116
37.788170
32.558056
25.327641
16.129921
5.100784
-7.521793
-21.400681
-36.139797
-51.319618
-66.501053
-80.541458
-93.343948
-104.738869
-114.568520
-122.724113
-129.115387
-133.659958
-136.229095
-137.121857
-135.875702
-132.716461
-127.145615
-118.787888
-107.511322
-93.417831
-76.879593
-58.489304
-39.037609
-19.329197
0.000061
17.760784
33.124226
45.609058
55.046192
61.526752
65.334412
66.882507
66.695801
65.263245
62.963673
60.167686
57.142532
54.056282
51.000252
48.014389
45.111336
42.324749
39.618706
36.951851
34.361744
31.874773
29.496151
27.225368
25.060764
22.983244
21.009727
19.122286
17.298233
15.553401
13.927599
12.405971
10.998089
9.694512
8.479063
7.368141
6.340023
5.380322
4.495937
3.700705
2.982649
2.347055
1.792788
1.305462
0.893003
0.541550
0.223988
-0.064808
-0.337547
-0.582216
-0.785980
-0.945211
-1.040997
-1.071463
-1.067713
-1.060814
-1.068090
-1.121367
-1.206850
-1.302588
-1.377243
-1.406246
-1.379103
-1.317745
-1.273762
-1.280981
-1.379915
-1.547327
-1.738176
-1.878197
-1.911602
-1.819944
-1.663954
-1.552269
-1.604195
-1.894110
-2.379375
-2.930378
-3.363899
-3.532486
-3.411108
-3.130619
-2.950748
-3.134779
-3.810463
-4.914133
-6.135748
-7.126003
-7.576344
-7.447630
-6.980190
-6.646839
-6.900980
-7.962294
-9.705526
-11.650011
-13.204649
-13.940405
-13.829353
-13.211651
-12.633255
-12.635937
-13.439245
-15.085318
-17.473602
-20.438793
-23.495018
-25.669815
-25.568256
-21.962767
-14.566925
-4.509235
5.916809
14.271832
19.145855
20.861450
21.196152
22.284779
25.476234
30.665291
36.637825
41.947437
45.768074
48.163288
49.585876
50.443283
50.556828
49.425514
46.586388
41.936367
35.845783
29.009789
22.180817
15.834442
10.303070
5.412571
0.966579
-3.338367
-7.781670
-12.513065
-17.375183
-21.847778
-25.180706
-26.617271
-25.843304
-23.079924
-19.133993
-15.014837
-11.538528
-9.060844
-7.455013
-6.376644
-5.446548
-4.680311
-4.032187
-3.656361
-3.664286
-4.015709
-4.705412
-5.708689
-7.160357
-9.165907
-11.678360
-14.307465
-16.364920
-17.076097
-15.986631
-13.261700
-9.608715
-6.078058
-3.497862
-2.210730
-2.097675
-2.651686
-3.436855
-4.159969
-4.871178
-5.714933
-6.845293
-8.370602
-10.321774
-12.619478
-15.094244
-17.458693
-19.330420
-20.705694
-21.671059
-22.652809
-24.021088
-25.949131
-28.445267
-31.339312
-34.403210
-37.449459
-40.238239
-42.326752
-43.013966
-41.469307
-36.648712
-28.386692
-17.315010
-4.623508
8.402897
20.813850
32.042957
41.787212
49.710342
55.451141
58.705444
59.610233
58.883450
57.525166
56.334488
55.535599
54.699841
53.185955
50.637695
47.271427
43.911152
41.534016
40.635593
41.054306
42.012592
42.520813
41.858551
39.793453
36.568630
32.625061
28.445827
24.165436
19.729153
14.909645
9.534485
3.621544
-2.611458
-8.921371
-15.251526
-21.830772
-29.130138
-37.603802
-47.431030
-58.365875
-69.788528
-81.063583
-91.812134
-102.064972
-112.103668
-122.114311
-131.766006
-140.068634
-145.596771
-146.911057
-143.233490
-134.654190
-122.121986
-106.950317
-90.285789
-72.834450
-54.823631
-36.444397
-18.058136
-0.428406
15.601135
29.394814
40.906982
50.627831
59.375893
67.950150
76.758461
85.970024
95.625351
105.934013
117.138084
129.252533
141.622650
152.660156
160.207642
162.238525
157.818909
147.607269
133.727493
118.864273
105.284760
94.116112
85.359505
78.521576
73.270409
69.785378
68.496407
69.474777
71.983589
74.513519
75.369225
73.153450
67.281464
57.797356
45.245014
30.557476
15.171246
1.326080
-8.037083
-10.036499
-3.114813
12.252282
33.517403
56.924225
78.679306
95.832405
106.831131
111.408600
110.129272
103.787521
93.245171
79.224136
62.395607
43.347580
22.388680
0.227715
-21.715729
-41.450668
-57.223785
-68.184494
-74.796188
-78.666138
-81.766800
-86.372589
-93.375366
-101.638748
-108.717850
-112.626450
-112.984344
-111.267548
-110.194107
-112.808197
-122.933044
-142.634476
-170.666443
-203.316376
-236.727798
-267.765808
-293.528320
-310.832581
-315.943695
-307.846588
-286.562134
-252.077744
-205.298920
-149.831100
-91.264435
-34.865768
15.792618
58.783340
89.476639
103.399796
99.092819
78.246597
43.539810
-1.891907
-53.974594
-108.236740
-140.425903
-134.684174
-98.669708
-53.955078
-14.875259
15.636642
39.964081
61.152771
80.770370
98.873642
111.342346
114.523766
108.875931
98.212952
86.041534
73.975388
62.415543
51.359604
41.303673
30.880791
19.388729
8.329773
0.431789
-3.404491
-4.782454
-5.328414
-6.619857
-9.243709
-14.491467
-23.071926
-34.031288
-45.038383
-54.216656
-60.784027
-64.678246
-66.473724
-67.167252
-68.569481
-72.090897
-77.587448
-82.845886
-85.209579
-82.638870
-74.163475
-60.177536
-41.736130
-19.945618
5.535843
32.883331
62.044708
93.245544
126.425125
161.260132
197.078644
233.159531
268.798706
303.186462
335.450562
365.721405
394.997009
425.110718
457.753510
492.958038
527.885681
556.936523
573.543762
572.963806
555.049988
524.236572
487.689026
452.226440
421.660645
396.093872
373.169983
350.208618
325.898010
300.856140
276.388672
253.103790
230.022888
204.839172
174.960297
138.671387
95.936584
48.496155
-0.757599
-49.123840
-94.920563
-138.043457
-179.669739
-221.472961
-264.860962
-310.705566
-359.414062
-410.943481
-464.385925
-517.074646
-564.129272
-598.955078
-615.062134
-608.636292
-580.230957
-534.991760
-480.692322
-425.066711
-373.456238
-328.184875
-289.432251
-256.799561
-230.318726
-210.411377
-197.074097
-189.009399
-183.651611
-178.060547
-170.119995
-159.350830
-146.858032
-134.671631
-124.599243
-117.437012
-112.705688
-109.121338
-105.286133
-100.398193
-94.700928
-89.217285
-85.345459
-84.095703
-85.723511
-89.610596
-94.559570
-99.402466
-103.416138
-106.644897
-109.672974
-113.330200
-118.172852
-124.342651
-131.437622
-138.690918
-145.003662
-149.038452
-149.294678
-144.307190
-132.922668
-114.682068
-90.097351
-60.657349
-28.601318
3.537720
33.474304
59.453735
80.447266
96.070801
106.399780
111.891174
113.192627
111.031433
106.210266
99.739075
92.638733
85.765259
79.736816
74.845825
71.200500
68.868774
67.832275
68.034546
69.367004
71.418396
73.497070
74.716370
74.206848
71.475189
66.572662
59.794983
51.684448
42.922272
33.993347
24.984222
15.779938
6.032990
-4.312134
-14.923828
-25.697235
-36.461182
-46.768646
-56.397369
-65.457672
-74.299866
-83.461395
-93.064026
-102.624756
-112.268738
-121.788208
-129.962982
-135.380493
-136.788116
-133.339905
-124.933746
-111.700699
-93.975632
-74.175766
-55.151169
-38.632584
-25.873199
-17.446671
-13.063171
-11.616547
-10.684799
-6.950073
0.622658
12.148735
28.340328
49.304775
74.734039
104.133133
132.550369
151.749054
167.341110
185.220947
202.850250
219.240219
233.615677
245.400696
254.186676
259.642914
262.007263
262.133698
258.769379
250.641083
238.215210
222.474503
204.808121
186.618851
168.855957
152.213333
137.218445
122.485519
106.612900
89.704880
72.255386
54.883759
38.054337
21.846054
6.186356
-8.770126
-23.751099
-39.105835
-54.198654
-68.271866
-80.502029
-89.822632
-95.307999
-96.420486
-92.999161
-85.935730
-76.128464
-64.487198
-52.377090
-41.175079
-31.302139
-22.848724
-16.051270
-11.239731
-9.107132
-9.153473
-10.492264
-12.670502
-15.257797
-16.813217
-16.142799
-13.219414
-8.903786
-4.749863
-0.590004
4.082649
9.059204
14.124924
20.561676
29.638268
41.534531
55.412247
69.420151
83.830185
99.408882
116.046539
122.724373
112.922577
89.807983
63.301765
47.895760
41.377678
40.819031
44.934914
49.160000
51.312252
51.614487
50.916748
49.234634
45.589699
37.563080
21.463470
-1.455101
-26.922888
-50.151215
-67.700485
-78.199463
-82.262932
-81.512650
-78.848770
-75.549088
-72.740372
-71.897263
-73.769119
-77.937920
-83.015343
-89.214661
-93.927261
-95.497955
-91.884727
-82.602768
-68.496162
-51.258286
-33.695328
-19.290627
-11.584946
-12.682899
-23.099354
-40.838696
-63.978806
-90.930435
-116.479431
-137.149536
-151.152084
-157.981934
-157.295624
-148.787048
-124.011078
-82.301193
-31.025894
18.958427
59.140625
86.343575
101.480309
107.598122
107.773941
104.248032
96.736755
85.034729
70.089325
53.671921
38.020920
25.094713
16.028643
10.671761
8.063943
6.234705
4.701002
4.827538
8.505980
16.731277
28.674725
42.190605
54.755577
64.636330
70.647354
73.040474
72.963425
71.579414
69.631424
67.245247
64.507614
61.631615
58.873123
56.085014
53.133587
49.870888
46.169212
42.090508
36.968842
30.745562
24.055441
18.126036
14.103444
12.453899
12.428052
12.214508
9.745070
3.532572
-6.321592
-18.330002
-30.409401
-40.847435
-48.295124
-53.617245
-58.205841
-63.118931
-68.751587
-74.647034
-79.848343
-83.534958
-85.266861
-85.121056
-83.540497
-80.753174
-76.465332
-70.118027
-61.164219
-49.831387
-37.319237
-25.595661
-16.728642
-12.030106
-11.630432
-14.343533
-18.376209
-22.049675
-24.261181
-24.805988
-23.940872
-22.431698
-20.525444
-18.681454
-17.200096
-16.353580
-16.125664
-16.005600
-14.923635
-11.293577
-3.520481
9.421412
27.249729
48.465408
70.043854
88.499382
101.027695
106.090965
104.097893
96.937691
87.848022
78.727676
70.951965
64.690697
58.945633
52.317146
43.643040
32.682648
20.181368
7.541731
-3.855656
-12.981783
-19.463781
-23.598375
-25.987949
-27.441553
-28.496361
-29.441498
-30.381500
-31.423576
-32.502083
-33.176399
-32.946701
-31.170671
-27.277016
-20.892090
-11.976198
-1.415630
9.002956
17.532640
23.386105
26.500450
27.527842
27.351753
26.784317
26.246002
25.700176
23.934441
20.484306
16.404110
13.216274
12.004078
12.806221
14.872406
17.037426
18.026058
15.541515
8.523403
-0.193214
-7.761841
-12.532562
-14.607105
-15.327972
-16.362823
-19.218426
-26.880909
-40.773441
-59.822716
-81.781967
-104.431602
-125.289536
-141.103973
-148.328094
-132.503433
-91.524826
-39.187065
6.367020
35.363907
47.985004
49.605801
46.440838
42.830261
40.359142
36.719273
30.332733
22.521244
16.277939
13.653671
14.927620
18.882038
23.617577
27.360943
27.719948
24.197929
18.862892
14.640266
13.296329
14.830280
18.047203
21.368984
23.550987
23.228218
20.474491
16.962456
14.751186
14.858463
16.957035
19.850338
22.320587
23.548580
23.019196
21.134655
19.024490
17.983311
18.823277
21.816936
26.565086
31.911674
35.770397
35.419697
28.784634
15.606709
-1.990456
-20.294945
-35.374935
-44.599159
-47.410423
-44.773026
-38.177956
-28.522964
-16.029434
-0.847580
16.142166
33.057533
47.472137
57.336731
61.565582
60.131416
53.812325
43.644775
30.967201
17.234306
4.062988
-7.149918
-15.599190
-21.209091
-24.555893
-26.278404
-26.803116
-26.224121
-24.540207
-22.019127
-19.239792
-17.057083
-16.159309
-16.793396
-18.635162
-20.928360
-23.027885
-24.632629
-26.036156
-27.819160
-30.451118
-33.786636
-37.032997
-38.957413
-38.567451
-35.624222
-30.874161
-25.794556
-21.908539
-20.141632
-20.410278
-21.724274
-22.681396
-22.058487
-19.285522
-14.503372
-8.494095
-2.339066
2.849304
6.189316
7.201584
5.858643
2.521919
-2.264771
-7.908768
-14.020264
-20.551079
-27.605362
-35.305107
-43.523277
-51.863205
-59.824478
-66.948402
-72.926407
-77.441765
-80.132057
-80.438911
-77.804855
-72.272453
-63.754196
-52.894615
-40.696259
-28.156082
-15.917191
-4.362946
6.329533
16.029255
24.586140
31.887108
37.771908
42.058365
44.475327
44.696999
42.505978
38.160439
32.587700
27.376764
24.404125
25.169821
30.303276
39.208046
50.201653
60.952892
69.229141
73.446587
73.018791
68.337219
60.361809
50.333351
39.333321
28.314369
18.113033
9.364365
2.573555
-2.144962
-4.964996
-6.412079
-7.141613
-7.652550
-8.094524
-8.364887
-8.298084
-7.820545
-7.095863
-6.409389
-6.153965
-6.758522
-8.588234
-11.863590
-16.596649
-22.669788
-29.671822
-37.070831
-44.215698
-50.581909
-55.894707
-60.276596
-64.023254
-67.686043
-71.905174
-77.041595
-82.979736
-88.802399
-92.739388
-92.519012
-86.092453
-72.099716
-50.794792
-24.229294
4.343582
31.359352
54.120308
71.362976
83.196686
90.465652
94.442596
95.737610
94.221085
89.252579
80.494095
68.448624
54.585052
40.981918
29.849213
23.773773
24.779556
33.693512
49.651093
69.974274
90.776733
108.089600
119.326630
120.593262
111.735489
95.989777
78.373016
63.180313
52.072784
44.263931
38.030136
32.141266
26.326324
21.331726
17.562134
14.525314
11.095871
6.181213
-0.538315
-8.532501
-16.574478
-23.476242
-28.114029
-30.162712
-30.247360
-29.635590
-29.664536
-31.175537
-34.208328
-38.108902
-41.878159
-44.362671
-44.990814
-43.892365
-41.883759
-39.996231
-39.035675
-39.362839
-41.031036
-43.980240
-47.857971
-51.870064
-54.451080
-53.518593
-47.154808
-34.714508
-17.521873
1.266747
17.866440
29.470390
35.168846
36.078026
34.202629
31.260460
27.933357
24.056488
19.393883
14.202377
9.382874
5.912407
4.262581
4.066528
4.369270
4.243584
3.144196
1.217384
-1.033310
-2.737663
-3.552605
-3.074585
-0.909203
3.249237
9.485252
17.425217
26.253967
34.631989
41.299057
45.197868
45.972717
43.919472
39.768478
34.430443
28.626984
22.944550
17.771507
13.535110
10.568497
9.213745
9.628761
11.598473
14.496811
17.543655
19.933327
21.146179
21.041603
19.928833
17.847588
14.859177
10.934853
5.913979
-0.289864
-7.587875
-15.718830
-24.152992
-32.163742
-38.870419
-43.536255
-45.805618
-45.910698
-44.724079
-43.267704
-42.381020
-42.322063
-42.798462
-43.028969
-42.201397
-39.541756
-34.520866
-26.960196
-17.058971
-5.625877
5.943707
15.864704
22.578117
25.287041
24.212511
20.431646
15.388261
10.274110
5.736429
1.884419
-1.449639
-4.446120
-7.176370
-9.448475
-11.006072
-11.684233
-11.427829
-10.445686
-9.021032
-7.408963
-5.717762
-4.041663
-2.363736
-0.807162
0.224702
0.271875
-0.996035
-3.537505
-6.845003
-10.201277
-13.052249
-15.110364
-16.415916
-17.189747
-17.731937
-18.372810
-19.668833
-22.426521
-26.758465
-32.985886
-40.900188
-49.575142
-57.300404
-61.948544
-61.495457
-54.556301
-40.729755
-20.789177
3.258873
28.769867
53.019753
73.819046
89.936378
101.123840
107.818428
110.746994
110.577240
107.655785
102.304977
94.865189
85.771950
75.493301
64.466682
53.165848
42.062675
31.743313
22.741976
15.534409
10.298115
6.807777
4.558174
2.847706
0.966869
-1.675560
-5.367500
-10.046528
-15.275875
-20.401619
-24.823566
-28.289497
-31.050526
-33.779121
-37.274094
-42.060310
-48.280014
-55.603065
-63.489235
-71.308212
-78.547386
-84.901909
-90.343071
-95.159943
-99.879463
-105.126709
-111.185196
-117.586250
-122.959358
-125.127693
-121.781143
-111.209106
-93.032822
-68.503891
-40.168877
-11.161018
15.742119
38.603539
56.581215
69.731339
78.564346
83.735359
85.878197
85.529503
83.249908
79.635895
75.231628
70.508011
65.789192
61.291443
57.117668
53.342747
50.044113
47.379284
45.497292
44.464931
44.217888
44.420673
44.577137
44.159161
42.758331
40.284786
36.953316
33.204613
29.494713
26.108627
23.121849
20.344879
17.520111
14.342529
10.665123
6.454750
1.764061
-3.379494
-8.997536
-15.117470
-21.682579
-28.481728
-35.230446
-41.624199
-47.601845
-53.373787
-59.400398
-66.194275
-74.005859
-82.644722
-91.353081
-98.950523
-104.033051
-105.204224
-101.335785
-91.749954
-76.522751
-56.606750
-33.723244
-10.088776
12.136856
31.242035
46.272018
56.958374
63.520744
66.407516
66.184082
63.566734
59.376335
54.449051
49.386482
44.425102
39.559425
34.730957
30.138344
26.224884
23.534744
22.431892
22.904343
24.518669
26.610588
28.522224
29.681496
29.771683
28.630875
26.327614
23.041275
18.960815
14.221954
8.845810
2.866806
-3.612114
-10.345116
-17.046028
-23.474739
-29.507881
-35.147842
-40.467606
-45.623497
-50.865585
-56.643799
-63.467598
-71.620911
-80.728302
-89.566238
-96.320374
-98.938217
-95.962921
-86.892181
-72.307610
-53.531982
-32.296761
-10.439110
10.341988
28.564384
43.191864
53.730438
60.300217
63.499519
64.107010
62.708923
59.692070
55.222771
49.549133
43.066856
36.417122
30.254074
25.094734
21.268051
18.829109
17.657120
17.453720
17.764503
18.018715
17.612823
16.126923
13.355522
9.358994
4.390778
-1.214806
-7.125641
-13.064743
-18.827530
-24.298546
-29.508530
-34.668762
-40.041512
-45.838745
-52.097080
-58.748077
-65.660690
-72.821930
-80.520554
-89.071945
-98.623573
-108.660538
-117.864731
-124.288651
-125.855194
-120.994949
-109.175491
-91.067490
-68.306725
-43.071182
-17.564808
6.277452
27.008244
43.752670
56.208511
64.616280
69.557129
71.806053
72.052490
70.823471
68.474503
65.331223
61.749191
58.088280
54.642704
51.587925
49.089573
47.217083
46.099861
45.733978
45.933582
46.292896
46.309196
45.584053
44.034042
41.906479
39.518921
37.156281
34.857155
32.435783
29.597870
26.011353
21.335869
15.337631
7.921272
-0.723534
-10.076218
-19.378601
-27.876328
-35.156334
-41.367867
-47.258095
-53.863365
-62.173210
-72.700653
-85.149124
-98.297806
-109.995911
-117.663559
-118.918686
-112.163101
-97.024185
-74.551208
-47.074554
-17.616653
10.795425
35.653152
55.368408
69.294510
77.712112
81.803131
83.005920
82.378448
80.536743
77.702286
73.981018
69.530045
64.566864
59.472839
55.188873
52.489883
51.725937
52.844604
55.692093
60.041122
65.499710
71.448761
77.181961
82.855743
88.340500
92.820847
95.021149
93.934479
89.332901
81.857422
72.727966
63.284042
55.611160
50.385803
46.513672
41.940994
35.303436
26.872574
18.493469
12.374054
2.548996
-13.768982
-35.049545
-56.497223
-74.185883
-86.831772
-95.200706
-100.951340
-105.407555
-108.304787
-105.897209
-93.443146
-67.822281
-29.974121
14.776001
58.285912
92.471756
112.160286
116.384117
108.637054
93.540703
74.645599
53.775406
32.118286
11.251442
-6.695663
-19.764561
-27.214748
-29.295483
-27.794514
-25.160999
-23.621075
-24.088760
-26.164886
-28.876093
-31.189163
-32.582615
-32.934631
-32.851768
-33.388161
-35.730679
-40.262455
-46.554176
-53.333302
-59.002705
-62.021088
-61.216938
-56.461033
-48.810368
-40.376617
-33.260845
-28.955143
-28.146338
-30.997831
-37.272869
-46.160992
-56.324936
-65.597023
-71.427139
-71.321167
-63.960899
-50.282921
-33.537437
-17.747887
-5.476288
3.353230
12.747355
26.735683
49.082638
81.473999
122.363724
166.408234
207.164215
239.946762
262.879395
276.305023
281.422729
279.647308
271.487946
256.185028
230.193573
190.724426
138.480728
77.570305
13.416779
-49.034431
-105.754135
-153.848465
-191.791321
-222.007568
-246.196152
-262.506470
-266.944885
-257.472290
-235.653839
-205.802032
-173.225586
-142.836441
-122.449921
-117.386139
-127.792206
-150.280426
-181.750732
-219.749634
-260.574738
-298.259216
-300.029358
-248.111053
-156.654739
-59.606339
17.448029
66.462845
91.588127
102.050110
106.865623
111.445206
112.923889
107.138870
94.199455
78.973381
66.753326
60.709015
61.311752
67.009094
75.114395
79.531898
76.230095
66.075531
53.713921
43.717384
38.421341
37.982063
41.068398
45.675613
47.859047
45.069443
37.947502
29.566982
22.863884
19.296085
18.825962
20.448467
22.777763
23.616394
21.710526
17.569778
13.043930
9.841003
8.734207
9.496689
11.268425
12.968391
13.417347
12.183010
9.819981
7.588791
6.596470
7.302460
9.350826
11.787682
13.576454
14.018024
13.062725
11.270290
9.672691
9.158081
10.353390
13.382603
17.845608
22.627636
25.943611
25.803093
20.593243
10.143452
-3.899765
-18.143490
-28.734169
-32.873562
-30.055183
-22.203896
-12.756039
-5.138588
-1.221516
-1.124641
-3.668991
-7.470490
-11.842533
-16.995857
-23.499058
-31.671013
-41.076069
-50.334846
-57.958080
-62.815327
-64.601349
-63.630058
-60.769146
-57.298618
-54.843647
-55.496231
-60.269176
-69.169525
-80.449455
-90.752701
-96.149048
-93.670319
-82.630569
-64.144104
-42.031078
-19.640623
1.015809
19.354137
35.365509
48.631546
58.062248
62.544361
61.617889
56.224094
48.735394
41.814678
37.457298
36.077000
36.506668
36.689468
34.675621
29.594313
21.909470
13.537804
6.599201
2.571339
1.600998
2.568718
3.651016
3.187466
0.076309
-6.070065
-14.798454
-24.781181
-33.517067
-37.508911
-33.149475
-18.408958
5.664703
34.579498
61.713646
80.937859
89.018509
86.639267
77.484276
66.019928
55.404457
46.598351
39.049461
32.001602
25.549225
20.615440
18.230148
18.613922
20.916046
23.675789
25.469978
25.583595
24.270645
22.475021
21.152573
20.944931
21.810387
23.071930
23.902267
23.635216
22.163033
19.926392
17.762779
16.426926
16.379532
17.542473
19.376144
21.116890
22.076294
21.768791
20.091194
17.314117
13.530922
8.943130
3.750786
-1.928955
-7.955292
-14.189960
-20.433189
-26.437527
-32.023678
-37.017262
-41.306862
-44.822819
-47.485054
-48.998466
-48.877270
-46.467690
-41.132938
-32.779034
-21.977591
-10.006947
1.406656
10.627571
16.525976
18.760834
17.710732
14.202555
9.202259
3.594881
-1.910479
-6.820448
-10.772076
-13.659470
-15.536753
-16.536339
-16.782967
-16.336933
-15.244032
-13.543165
-11.404422
-9.057505
-6.876324
-5.083289
-3.801699
-2.963219
-2.386297
-1.959963
-1.734861
-1.975882
-2.805995
-4.296329
-6.196136
-8.171239
-9.958913
-11.586500
-13.255786
-15.349907
-18.083130
-21.342051
-24.784271
-27.959579
-30.617449
-32.850433
-35.182892
-37.832481
-41.280430
-45.899975
-51.742393
-58.389282
-64.947235
-69.998444
-71.848808
-68.813492
-59.781189
-44.667587
-24.553879
-1.483990
22.000854
43.542576
61.436924
74.843719
83.687439
88.359550
89.386055
87.384094
83.020950
77.046494
70.257759
63.404388
57.007042
51.368404
46.607265
42.709743
39.680229
37.634632
36.638897
36.706928
37.747707
39.495052
41.605549
43.598049
44.873470
44.897282
43.321396
40.128674
35.642307
30.442257
25.059746
19.867870
14.818817
9.613560
3.858179
-2.677141
-9.998714
-17.858963
-25.889368
-33.732941
-41.160480
-48.084423
-54.530350
-60.600128
-66.468292
-72.222351
-77.885506
-83.446419
-88.952591
-94.499794
-100.172745
-105.797897
-110.701775
-113.670151
-113.030350
-107.144279
-95.061958
-76.963371
-54.284554
-29.327402
-4.595480
17.815416
36.615166
51.389328
62.235676
69.476791
73.491989
74.739838
73.842545
71.647797
69.000252
66.537712
64.506180
62.732964
60.900146
58.908714
56.860088
55.099560
53.965622
53.623398
53.996181
54.847797
55.835018
56.618004
56.893021
56.347500
54.784489
52.116760
48.392658
43.823250
38.621132
33.019981
27.211166
21.371387
15.598910
9.947977
4.425048
-0.986035
-6.295681
-11.468737
-16.545368
-21.624651
-26.892849
-32.526863
-38.525177
-44.648857
-50.533772
-55.901436
-60.699226
-65.182297
-69.813141
-75.031891
-81.160172
-88.243469
-95.951569
-103.541885
-109.852737
-113.353027
-112.448730
-105.931061
-93.369125
-75.365463
-53.454643
-29.721138
-6.343346
14.921822
32.962391
47.305733
57.968937
65.244019
69.476578
71.023102
70.269524
67.630798
63.637691
58.843662
53.764683
48.783524
44.135265
39.952003
36.337193
33.411224
31.257931
29.926807
29.376610
29.483498
30.095016
31.064701
32.203472
33.247299
33.886124
33.776093
32.638077
30.402054
27.170135
23.168533
18.622551
13.670189
8.292061
2.410179
-3.937881
-10.579391
-17.224251
-23.591164
-29.447670
-34.726349
-39.393524
-43.536491
-47.271858
-50.787842
-54.436974
-58.649071
-63.863861
-70.277885
-77.698128
-85.326691
-91.859642
-95.699875
-95.269829
-89.567528
-78.363388
-62.390198
-43.133965
-22.452248
-2.239410
16.032211
31.341805
43.191956
51.402107
56.012970
57.248413
55.436287
51.134193
45.064423
38.137672
31.258102
25.199066
20.458527
17.269287
15.624001
15.391251
16.462326
18.639297
21.656067
25.029060
28.178238
30.384102
31.148262
30.232216
27.682785
23.851158
19.131233
13.895981
8.392601
2.754654
-2.979362
-8.736565
-14.399994
-19.847046
-24.913963
-29.611870
-34.166405
-38.971413
-44.485939
-51.031990
-58.611168
-66.834335
-74.883629
-81.593315
-85.672440
-85.879898
-81.315292
-71.692467
-57.512436
-39.969696
-20.681553
-1.323692
16.723347
32.466076
45.328033
55.036469
61.503162
64.828049
65.346832
63.522190
59.897141
55.046261
49.441010
43.528160
37.792782
32.683079
28.652607
25.991867
24.739685
24.641563
25.320271
26.262390
26.981499
27.051750
26.195091
24.388485
21.756653
18.534698
14.860352
10.793320
6.265980
1.195770
-4.511002
-10.852982
-17.773029
-25.172638
-32.878265
-40.669395
-48.301750
-55.652077
-62.744904
-69.862434
-77.378479
-85.452843
-93.743988
-101.260979
-106.461685
-107.623863
-103.278999
-92.667305
-75.991783
-54.476017
-30.030205
-4.919409
18.708967
39.244190
55.746944
68.053078
76.507416
81.678719
84.166283
84.432732
82.817177
79.669067
75.392609
70.459229
65.356354
60.459579
55.967628
51.964302
48.525425
45.724964
43.743530
42.672573
42.414440
42.635166
42.851658
42.570679
41.423775
39.280369
36.095448
31.962641
26.999748
21.319544
15.131268
8.685830
2.227622
-4.161017
-10.578771
-17.266397
-24.353313
-31.823656
-39.426659
-46.829288
-53.746788
-60.097954
-65.990189
-71.683029
-77.526825
-83.820435
-90.746628
-98.171150
-105.422447
-111.274483
-114.042236
-111.988663
-103.852913
-89.320610
-69.239929
-45.407139
-20.133852
4.352360
26.232977
44.348896
58.177597
67.742294
73.416191
75.778854
75.573929
73.603729
70.677231
67.443413
64.335999
61.507561
58.892155
56.388035
54.020237
52.031391
50.696571
50.162312
50.326328
50.874222
51.439426
51.735779
51.632763
51.010735
49.649662
47.238129
43.463402
38.304134
32.109581
25.419464
18.814621
12.624624
6.919052
1.526876
-3.758507
-9.073797
-14.461119
-19.951839
-25.677906
-31.704021
-37.999313
-44.363995
-50.529732
-56.234123
-61.426758
-66.267509
-71.185028
-76.679245
-83.068436
-90.272476
-97.538109
-103.518005
-106.445900
-104.618996
-96.874947
-83.005379
-63.920082
-41.403339
-17.658112
5.213478
25.624056
42.711754
56.169838
66.026909
72.526001
75.898811
76.490211
74.724625
71.213165
66.686531
61.795891
57.076645
52.732628
48.830158
45.352531
42.379307
40.098835
38.779900
38.585579
39.471970
41.099457
42.812778
43.917816
43.788338
42.110203
38.960251
34.708908
29.860489
24.839787
19.816231
14.689487
9.270262
3.379706
-2.948504
-9.521796
-16.053211
-22.276541
-28.080227
-33.419327
-38.440231
-43.336964
-48.381298
-53.928413
-60.288189
-67.627419
-75.765724
-84.058853
-91.355682
-96.214027
-97.147789
-93.054710
-83.543091
-69.029045
-50.763256
-30.455318
-9.976363
9.044676
25.420897
38.545357
48.290123
54.781834
58.343307
59.288109
57.939484
54.690529
49.977375
44.336014
38.365780
32.669373
27.658310
23.657013
20.717348
18.726704
17.570185
17.128872
17.350842
18.089781
19.068377
19.801046
19.778530
18.678747
16.507048
13.646038
10.553284
7.590059
4.687040
1.518129
-2.396374
-7.274708
-13.033276
-19.350578
-25.808073
-32.182678
-38.431850
-44.715820
-51.287060
-58.292953
-65.672722
-72.955338
-79.257294
-83.269989
-83.758194
-79.665291
-70.565575
-56.823151
-39.431171
-19.872604
0.190643
19.157854
35.761963
49.116890
58.856735
65.015572
67.899094
67.989426
65.734619
61.574638
55.913544
49.289421
42.285057
35.492592
29.412754
24.422861
20.767210
18.577499
17.904770
18.618530
20.398647
22.654461
24.663025
25.784100
25.600918
24.107506
21.473557
17.969631
13.770435
8.901176
3.315197
-2.963329
-9.756680
-16.720249
-23.448460
-29.725979
-35.515858
-41.002522
-46.494061
-52.314102
-58.698875
-65.694214
-72.997543
-79.859985
-85.051941
-87.002930
-84.257950
-75.885376
-61.917351
-43.361202
-22.056789
-0.173019
20.331741
38.020748
52.109142
62.410408
69.047569
72.391090
72.955276
71.292816
68.055130
63.853550
59.252636
54.622959
50.162762
45.932022
41.966518
38.394249
35.424965
33.270245
32.035595
31.661507
31.895721
32.335815
32.617279
32.458565
31.658386
30.132881
27.812027
24.671127
20.746826
16.172020
11.171761
6.007767
0.930145
-3.923195
-8.559402
-13.136055
-17.966393
-23.311592
-29.319023
-35.923065
-42.864471
-49.822289
-56.523148
-62.890060
-69.049324
-75.306168
-81.963333
-89.157196
-96.634575
-103.667404
-109.135887
-111.592667
-109.562698
-101.883797
-88.148399
-68.867241
-45.579697
-20.476341
4.070778
26.002991
44.025246
57.668808
67.109299
72.900002
75.704643
76.062050
74.490494
71.493088
67.495247
62.963074
58.191856
53.462334
48.917152
44.750679
41.165375
38.383743
36.570602
35.735207
35.725395
36.207504
36.792259
37.153549
37.080055
36.520317
35.493011
34.014915
31.970680
29.162552
25.298965
20.261963
14.181442
7.469147
0.718384
-5.507858
-10.957123
-15.729279
-20.213730
-24.889999
-30.066696
-35.791534
-41.877426
-48.002228
-53.946396
-59.581757
-64.955566
-70.217590
-75.585922
-81.272156
-87.482574
-94.206360
-100.989304
-106.810196
-110.180222
-109.372452
-102.976257
-90.413193
-72.199783
-49.925781
-25.825638
-2.191681
19.101501
36.903229
50.799850
60.870956
67.440445
70.921799
71.712311
70.273529
67.105621
62.808395
58.025650
53.341919
49.185425
45.810440
43.271820
41.529480
40.459900
39.877701
39.625320
39.613266
39.757050
40.052994
40.474854
40.983368
41.456329
41.691071
41.467987
40.586090
38.875122
36.198456
32.478638
27.747589
22.163895
16.044724
9.789658
3.733658
-1.928940
-7.332733
-12.864883
-18.982864
-25.986389
-33.845932
-42.166107
-50.317520
-57.736053
-64.143417
-69.745087
-75.107895
-80.914352
-87.669891
-95.398056
-103.408585
-110.394897
-114.621597
-114.306641
-108.160339
-95.758789
-77.718521
-55.615311
-31.589233
-7.866135
13.682388
31.706619
45.573715
55.156860
60.866074
63.389893
63.507904
61.866379
58.917923
54.886581
49.842331
43.982529
37.612137
31.157867
25.118652
19.956894
16.078308
13.832108
13.425690
14.763229
17.451401
20.683167
23.520569
25.104568
24.983704
23.206863
20.260284
16.739197
13.035095
9.301147
5.395447
1.095367
-3.772461
-9.215317
-15.103775
-21.189697
-27.155502
-32.809265
-38.007736
-42.879028
-47.731995
-52.931763
-58.840958
-65.473206
-72.359947
-78.490105
-82.414452
-82.508652
-77.455124
-66.623688
-50.361633
-30.012566
-7.667397
14.338768
33.990028
49.941147
61.678406
69.302460
73.252113
74.026711
72.112366
67.931557
61.962357
54.861145
47.260956
39.811455
32.925018
26.801529
21.536880
17.277664
14.269882
12.713829
12.696098
13.929298
15.820114
17.521446
18.302361
17.704292
15.695076
12.538574
8.551697
3.972000
-1.177261
-6.859093
-13.056938
-19.646019
-26.441696
-33.275024
-40.060661
-46.806015
-53.497925
-60.211006
-67.043900
-74.139748
-81.618736
-89.340256
-96.833069
-103.135056
-106.873764
-106.519608
-100.759979
-88.905228
-71.072083
-48.483288
-23.112404
2.605507
26.387691
46.514179
62.105083
72.947929
79.315369
81.765312
80.961510
77.721909
72.965279
67.613083
62.380089
57.658230
53.411610
49.436783
45.613155
41.919441
38.546654
35.726898
33.688721
32.570583
32.322708
32.686668
33.185402
33.250992
32.351261
30.165737
26.607098
21.737686
15.830074
9.077349
1.742598
-5.974108
-13.841719
-21.719788
-29.464098
-36.964577
-44.150497
-50.944946
-57.431923
-63.929665
-71.070847
-79.505630
-89.581299
-100.825050
-111.732864
-120.061737
-123.410797
-119.942520
-108.927612
-90.905579
-67.444008
-40.690140
-12.865952
14.004539
38.235268
58.543297
74.094215
84.602791
90.363907
92.184891
91.182487
88.413010
84.692429
80.410789
75.672058
70.402763
64.657394
58.712799
53.081947
48.336159
44.877037
42.812599
41.911247
41.740837
41.862679
41.898178
41.584213
40.730606
39.191040
36.783333
33.386330
28.994141
23.731361
17.855064
11.573463
4.966957
-2.095695
-9.837006
-18.487259
-28.020477
-38.112778
-48.220901
-57.800247
-66.516785
-74.550201
-82.478485
-91.078186
-101.020462
-112.432846
-124.701614
-136.354980
-145.346436
-149.369873
-146.458008
-135.483887
-116.524307
-90.919052
-60.966278
-29.387985
1.239594
28.882690
52.154541
70.390091
83.442001
91.590683
95.434280
95.836807
93.790070
90.218414
85.966110
81.604370
77.414886
73.450790
69.561310
65.570343
61.498978
57.690948
54.703781
53.196396
53.423645
55.086548
57.268295
58.842850
58.819183
56.678986
52.395111
46.303238
38.912476
30.727432
22.251678
13.934128
6.058411
-1.305771
-8.441162
-15.787857
-23.773727
-32.503464
-41.784012
-51.101395
-59.915558
-67.878052
-74.939346
-81.394135
-87.897644
-95.212891
-103.957916
-114.167725
-124.931946
-134.348022
-139.941376
-139.275146
-130.664459
-113.735504
-89.466461
-59.930939
-27.805511
4.183838
33.627594
58.712921
78.283112
91.853455
99.469086
101.773804
99.808563
94.884216
88.340546
81.301453
74.460724
68.011932
61.808167
55.729858
49.959930
45.075714
41.847687
40.878082
42.139832
44.971130
48.205139
50.624542
51.370270
50.201050
47.379059
43.425018
38.852295
33.870087
28.442413
22.360657
15.461578
7.723328
-0.694977
-9.518738
-18.463776
-27.315674
-36.056244
-44.825165
-53.898499
-63.519104
-73.824829
-84.574982
-95.074738
-104.079254
-109.901123
-110.763336
-105.158020
-92.350861
-72.608978
-47.252197
-18.477783
11.064911
38.784546
62.608948
81.218384
94.189697
101.705505
104.346161
102.854828
97.955414
90.362946
80.872589
70.404053
59.953033
50.466400
42.609589
36.702179
32.696106
30.383942
29.504913
29.749542
30.784760
32.091003
33.044403
33.042542
31.668610
28.791748
24.596222
19.369507
13.381744
6.748413
-0.555756
-8.576477
-17.282318
-26.442657
-35.767120
-44.917938
-53.717651
-62.218903
-70.722778
-79.673462
-89.321106
-99.431000
-109.024963
-116.395355
-119.393646
-116.063446
-105.187042
-86.722321
-61.890137
-32.856476
-2.177063
27.642212
54.598206
77.240784
94.706116
106.639191
113.137848
114.678772
112.035156
106.138458
97.969879
88.526947
78.720245
69.372345
61.090332
54.277344
48.997437
45.149750
42.473633
40.763855
39.952911
39.969696
40.589722
41.298553
41.371216
40.044586
36.932983
32.080750
25.972900
19.267944
12.514160
5.948730
-0.508392
-7.120087
-14.147034
-21.701538
-29.695740
-37.828583
-45.728912
-53.085480
-59.767761
-65.965454
-72.162384
-79.039780
-87.243500
-97.110596
-108.362747
-119.899521
-129.857574
-135.827209
-135.451080
-127.000092
-109.961639
-85.280167
-55.227844
-22.799820
8.961502
37.474747
61.060287
78.921234
91.050125
97.985870
100.643127
100.089752
97.358139
93.262711
88.236267
82.479431
76.073059
69.210861
62.337387
56.105499
51.205139
48.071457
46.719330
46.732269
47.456161
48.295197
48.828018
48.883102
48.432831
47.484604
46.021637
44.121979
41.929886
39.692657
37.593658
35.580994
33.379051
30.577118
26.856094
22.127380
16.585861
10.513382
4.195595
-2.220490
-8.700493
-15.131020
-21.350052
-27.154121
-32.423386
-37.209679
-41.781845
-46.526649
-51.763111
-57.681522
-64.134354
-70.737183
-77.029266
-82.609077
-87.377029
-91.572220
-95.752785
-100.548599
-106.464722
-113.431267
-120.701103
-126.832954
-129.902756
-127.967484
-119.558846
-104.159981
-82.427689
-56.111858
-27.731245
-0.059984
24.524055
44.475037
59.255112
69.186890
75.103531
77.951553
78.552635
77.543839
75.427002
72.620972
69.457954
66.168228
62.773399
59.226757
55.562260
51.979919
48.854496
46.586544
45.405960
45.274521
45.913857
46.841743
47.592667
47.767296
47.113808
45.542671
43.172043
40.246017
37.027412
33.733025
30.352989
26.755814
22.789314
18.389122
13.708374
9.037926
4.637489
0.610809
-3.115692
-6.806351
-10.710587
-14.955032
-19.585632
-24.550964
-29.813782
-35.372391
-41.243256
-47.356964
-53.625015
-59.923294
-66.145508
-72.225250
-78.038742
-83.466812
-88.478836
-93.186829
-97.841766
-102.770096
-107.985474
-112.964935
-116.549988
-117.109634
-113.044037
-103.346024
-87.988586
-67.990234
-45.090088
-21.250824
1.725281
22.403076
39.838898
53.488739
63.091782
68.676056
70.548141
69.305878
65.807373
61.030197
55.780792
50.600983
45.698746
41.007767
36.497833
32.278214
28.638123
25.925430
24.384949
23.925354
24.178482
24.590103
24.623123
23.939606
22.427811
20.139526
17.153061
13.610504
9.625839
5.408539
1.186798
-2.815231
-6.430405
-9.694763
-12.800140
-16.023636
-19.593735
-23.666840
-28.157608
-32.833542
-37.454773
-41.808014
-45.933609
-50.087204
-54.710068
-60.196304
-66.713715
-73.984253
-81.124725
-86.817062
-89.509857
-87.777390
-80.761108
-68.415085
-51.511688
-31.542969
-10.415192
9.988052
28.011032
42.520294
52.910706
59.146042
61.668533
61.201157
58.591660
54.589493
49.854950
44.835464
39.907288
35.294037
31.230301
27.915207
25.445984
23.799362
22.845734
22.409271
22.292892
22.396835
22.592422
22.654907
22.260773
21.031143
18.671951
15.179367
10.871277
6.239822
1.691147
-2.732697
-7.335190
-12.587906
-18.803650
-25.832458
-33.140625
-40.130737
-46.454391
-52.245041
-57.985382
-64.360641
-71.855530
-80.581589
-90.085403
-99.416199
-107.137619
-111.515152
-110.874878
-103.984421
-90.447372
-70.947815
-47.173401
-21.361069
4.172913
27.479660
47.209076
62.613312
73.431702
79.830582
82.271866
81.472366
78.368958
73.857239
68.657333
63.237305
57.809982
52.421402
47.246399
42.468674
38.362808
35.126068
32.837372
31.383774
30.591965
30.337753
30.483566
30.835129
31.030609
30.565460
28.932343
25.860138
21.512573
16.433838
11.297424
6.504440
2.040222
-2.591736
-7.951553
-14.392181
-21.839615
-29.886604
-38.039848
-45.948174
-53.537148
-60.833542
-67.944565
-74.991737
-82.162552
-89.820610
-98.233315
-107.373703
-116.506622
-124.078438
-127.948746
-125.969269
-116.714981
-99.952393
-76.754036
-49.237602
-20.004478
8.417755
33.957108
55.253860
71.624260
82.902290
89.350342
91.467804
90.023811
85.901245
80.150848
73.713501
67.380959
61.642006
56.688843
52.572910
49.293289
46.968639
45.741394
45.691185
46.641594
48.137669
49.642151
50.643711
50.826996
50.048882
48.209320
45.237823
41.070702
35.755249
29.529144
22.779556
15.854915
8.867340
1.636868
-6.201032
-14.907069
-24.379486
-34.149826
-43.554066
-52.076569
-59.636993
-66.570297
-73.538681
-81.250366
-90.218552
-100.484940
-111.552254
-122.260605
-130.841583
-135.197067
-133.318756
-123.840332
-106.494965
-82.220276
-53.010807
-21.441944
9.882454
38.632904
63.091225
82.202850
95.563461
103.392998
106.384567
105.567978
102.007416
96.648911
90.152321
82.936600
75.298729
67.475716
59.850334
52.874901
47.079094
42.922951
40.690506
40.399414
41.726807
44.099724
46.708153
48.796997
49.747047
49.241447
47.201759
43.756844
39.125526
33.529076
27.219536
20.363480
13.067192
5.272644
-3.113831
-12.220161
-21.953201
-31.979080
-41.757553
-50.636688
-58.216019
-64.504135
-70.106339
-75.914444
-82.854118
-91.436157
-101.266975
-111.018433
-118.434456
-120.907242
-116.151962
-103.002853
-81.824173
-54.506676
-24.055672
6.341408
33.896637
56.860321
74.426353
86.534843
93.555588
96.009636
94.476151
89.614944
82.242691
73.219444
63.528374
54.019714
45.330078
37.824821
31.598488
26.680885
23.119568
21.125931
20.776550
21.944977
24.045166
26.049225
26.908005
25.842278
22.755142
18.139481
12.852348
7.451988
2.110863
-3.455093
-9.637718
-16.519279
-23.824837
-31.003082
-37.632126
-43.606232
-49.346451
-55.540955
-62.857758
-71.652634
-81.735764
-92.291641
-101.931488
-108.829636
-111.001526
-106.692108
-94.790955
-75.271057
-49.415466
-19.637268
11.008743
39.528000
63.551453
81.751877
93.848145
100.349106
102.226517
100.475754
96.059631
89.823532
82.559296
74.945740
67.522354
60.623184
54.413498
49.020386
44.518616
41.100739
38.929657
38.047546
38.232590
39.050201
39.859329
39.986359
38.921600
36.376038
32.411591
27.362747
21.692200
15.818497
9.988785
4.132675
-2.062683
-8.913940
-16.650658
-25.205612
-34.243378
-43.309319
-51.980705
-60.056244
-67.720192
-75.452164
-83.802872
-93.153229
-103.338058
-113.388603
-121.589973
-125.783363
-123.906334
-114.614716
-97.750168
-74.396072
-46.702515
-17.360741
11.009132
36.273911
57.052750
72.798431
83.648178
90.147430
93.101471
93.284142
91.402344
88.080223
83.787918
78.904205
73.728447
68.545181
63.641167
59.346893
55.951668
53.629173
52.444504
52.287392
52.927170
54.058411
55.236633
55.922333
55.532730
53.614113
50.025238
45.088516
39.461815
33.825531
28.623657
23.778751
18.868038
13.448257
7.331406
0.708988
-5.965401
-12.268337
-18.069756
-23.527187
-28.951103
-34.576141
-40.481758
-46.604240
-52.859993
-59.177284
-65.480766
-71.666245
-77.557533
-83.092758
-88.384468
-93.706627
-99.443359
-105.825737
-112.676323
-119.106422
-123.605423
-124.222824
-119.247284
-107.689064
-89.676361
-66.571289
-40.518009
-13.953932
11.012716
32.881180
50.906116
64.803329
74.625732
80.680328
83.416702
83.462189
81.538223
78.371819
74.500137
70.294327
65.952866
61.617966
57.503254
53.838978
50.861790
48.722046
47.438099
46.878979
46.872169
47.234879
47.738548
48.203773
48.330555
47.796452
46.303268
43.625687
39.780506
34.924332
29.321167
23.199783
16.744370
10.032906
3.214012
-3.450188
-9.701675
-15.256142
-20.018173
-24.138550
-27.985062
-31.991646
-36.524414
-41.704491
-47.330856
-52.987556
-58.197731
-62.644363
-66.265709
-69.331787
-72.319298
-75.701958
-79.829514
-84.808693
-90.532829
-96.586945
-102.229584
-106.357971
-107.585602
-104.449310
-95.812866
-81.347717
-61.751633
-38.731506
-14.528641
8.614182
28.894699
45.285583
57.413147
65.393875
69.582489
70.412674
68.394440
64.149582
58.405350
51.955963
45.484879
39.442368
34.090790
29.531357
25.861252
23.302597
22.129379
22.518997
24.361420
27.105682
29.961761
32.068161
32.846115
32.128067
30.027283
26.848267
22.830292
18.149796
12.946823
7.385269
1.617889
-4.311050
-10.519440
-17.193939
-24.399353
-31.997131
-39.582962
-46.692322
-53.049149
-58.709030
-64.103165
-69.774658
-76.204620
-83.586624
-91.649384
-99.658951
-106.348770
-110.116943
-109.272766
-102.440887
-89.008698
-69.463547
-45.284485
-18.738220
7.653397
31.611710
51.443207
66.242928
75.911392
80.978035
82.352592
81.027367
77.858208
73.502075
68.365524
62.790977
57.092400
51.638283
46.736336
42.626114
39.405464
37.061836
35.519493
34.672798
34.379471
34.405800
34.515244
34.400658
33.808975
32.480774
30.321877
27.367325
23.796989
19.898399
15.919350
11.935608
7.782684
3.173843
-2.192833
-8.468773
-15.558250
-23.256294
-31.320198
-39.540543
-47.751602
-55.752960
-63.284126
-70.068504
-76.025055
-81.332596
-86.523781
-92.313431
-99.229309
-107.301697
-115.815262
-123.243851
-127.606453
-126.865822
-119.550392
-105.170830
-84.376785
-58.851883
-30.909531
-2.908607
23.069679
45.469894
63.446983
76.696411
85.374603
90.078789
91.567078
90.657326
88.057198
84.292122
79.721581
74.669327
69.440567
64.335625
59.606731
55.441868
51.978901
49.365108
47.734459
47.091805
47.267120
47.851231
48.259247
48.004368
46.764000
44.599186
41.765026
38.535141
34.960541
30.913967
26.071529
20.262421
13.644680
6.568081
-0.498734
-7.271255
-13.761944
-20.334751
-27.416718
-35.286713
-43.851105
-52.591881
-60.890182
-68.190285
-74.302002
-79.434052
-84.202316
-89.357712
-95.594917
-103.265091
-112.146233
-121.356979
-129.282089
-133.847137
-132.889816
-124.738335
-108.812675
-85.843452
-57.787045
-27.363186
2.568167
29.605360
52.063904
69.101921
80.662247
87.236298
89.685966
89.035530
86.364861
82.548889
78.136459
73.297188
67.930328
61.938503
55.546059
49.343643
44.225937
41.099533
40.417347
42.018719
45.108257
48.575146
51.358139
52.814888
52.657768
50.935352
47.760574
43.314594
37.793446
31.519718
24.857513
18.086601
11.258537
4.181309
-3.451344
-11.822197
-20.801544
-29.985474
-38.848091
-46.999603
-54.411629
-61.468124
-68.868752
-77.312561
-87.167641
-98.085434
-108.840591
-117.468102
-121.618927
-119.180878
-108.932014
-90.906059
-66.423126
-37.809166
-7.852211
20.808334
45.999168
66.338799
81.174408
90.515213
94.800369
94.769783
91.281845
85.250435
77.547035
68.919640
60.045540
51.463905
43.716362
37.341408
32.841553
30.534874
30.366447
31.836472
34.021988
35.920609
36.706757
36.010834
33.916588
30.709137
26.653427
21.860199
16.280624
9.840317
2.645256
-5.119194
-13.098587
-20.960121
-28.476120
-35.633255
-42.657631
-49.948547
-58.013344
-67.201866
-77.615952
-88.798332
-99.677925
-108.634842
-113.665176
-112.824432
-104.663284
-88.764816
-65.964630
-38.285721
-8.520279
20.422424
46.095322
66.913483
82.176285
91.891373
96.474274
96.612106
93.269760
87.632324
81.004669
74.505051
68.805023
64.014587
59.897263
56.129944
52.624512
49.625107
47.537766
46.709824
47.156479
48.553116
50.263641
51.641571
52.084656
51.156601
48.616753
44.457367
38.834656
32.056747
24.541824
16.645355
8.643509
0.630562
-7.474258
-15.810196
-24.453041
-33.308426
-42.073021
-50.357216
-57.909874
-64.813782
-71.545113
-78.816177
-87.314713
-97.274307
-108.227669
-118.824814
-127.029190
-130.572159
-127.462677
-116.567520
-97.928368
-72.841682
-43.591125
-12.929070
16.509422
42.568001
63.800484
79.527214
89.744057
94.941368
96.002007
93.994415
89.992844
84.898079
79.330994
73.632721
68.028267
62.709869
57.897301
53.866470
50.846046
48.932880
48.070576
48.075256
48.622780
49.408722
50.013687
50.029572
49.075752
46.890911
43.434269
38.878452
33.596954
27.955774
22.184963
16.317013
10.278337
3.988140
-2.453489
-8.846766
-14.968676
-20.803865
-26.612242
-32.728531
-39.343075
-46.231277
-52.849854
-58.569092
-63.087891
-66.671738
-70.118362
-74.412346
-80.292137
-87.943253
-96.829544
-105.784874
-113.219467
-117.271576
-116.233643
-108.837845
-94.694824
-74.523247
-50.136539
-24.069706
1.047810
23.093609
40.856300
54.058826
63.071732
68.505203
70.970535
70.907333
68.696678
64.814957
59.892700
54.654198
49.691132
45.318382
41.571564
38.332817
35.629852
33.663918
32.794327
33.241875
34.869102
37.064003
38.989258
39.916458
39.476906
37.845474
35.469864
32.762383
29.866364
26.664085
22.892723
18.415726
13.290833
7.665596
1.751526
-4.244011
-10.127121
-15.698891
-20.780762
-25.303375
-29.364288
-33.218430
-37.132126
-41.165054
-45.142960
-48.853516
-52.283859
-55.857559
-60.332764
-66.425873
-74.335342
-83.410431
-92.075775
-98.285965
-100.122467
-96.266418
-86.427780
-71.259750
-52.184387
-30.978592
-9.443298
10.855652
28.689423
43.209763
53.973160
60.932419
64.415710
65.034454
63.543213
60.608475
56.758652
52.282440
47.448029
42.574493
38.101730
34.558472
32.373810
31.730347
32.434280
33.985947
35.742523
37.133606
37.791992
37.463486
36.091492
33.656555
30.285126
26.237625
21.874527
17.640076
13.757706
10.220200
6.789856
3.163635
-0.872223
-5.236176
-9.648773
-13.844666
-17.731308
-21.474915
-25.408920
-29.790436
-34.665848
-39.905533
-45.244598
-50.434387
-55.360229
-60.012970
-64.520233
-69.056885
-73.882812
-79.201904
-85.069092
-91.142334
-96.560760
-100.041687
-100.101349
-95.534760
-85.724548
-70.841553
-51.849396
-30.358246
-8.289215
12.443298
30.299835
44.390717
54.509613
60.926971
64.185028
64.771820
63.071106
59.474518
54.488861
48.901581
43.549530
39.171082
36.097382
34.236389
33.255127
32.812164
32.743988
33.110992
34.024109
35.439545
37.128235
38.613556
39.451202
39.322693
38.149872
36.075073
33.309540
30.057648
26.387756
22.210236
17.367340
11.794861
5.652649
-0.652344
-6.553619
-11.541016
-15.347748
-18.075806
-20.083862
-21.968536
-24.312653
-27.516510
-31.694489
-36.634888
-41.888306
-46.981537
-51.584259
-55.584290
-59.281860
-63.162445
-67.773163
-73.522583
-80.388702
-87.874207
-94.909729
-99.972107
-101.343384
-97.556458
-87.817627
-72.333984
-52.423859
-30.199738
-8.003357
12.097015
28.768677
41.444855
50.126282
55.238037
57.340515
56.968231
54.738770
51.259308
47.136902
42.938232
39.042725
35.625183
32.719238
30.255554
28.109344
26.319885
25.048065
24.493134
24.813904
25.891998
27.302124
28.495605
28.975525
28.447144
26.924622
24.601257
21.700043
18.481354
15.125946
11.768402
8.519592
5.358215
2.090576
-1.528442
-5.773102
-10.760742
-16.332855
-22.210022
-28.150909
-34.011200
-39.851349
-45.682587
-51.486267
-57.165619
-62.669037
-68.036728
-73.352158
-78.591614
-83.316238
-86.646133
-87.293655
-83.979065
-75.869568
-62.906311
-45.847656
-26.035172
-5.124496
15.279388
33.688538
48.927414
60.099030
66.720871
68.905457
67.341995
63.159073
57.537277
51.399826
45.145493
38.766998
32.173157
25.512512
19.343948
14.377701
11.204712
9.894730
10.087646
11.136002
12.495071
13.831985
14.961288
15.753464
15.896255
15.027557
12.826401
9.224915
4.427307
-1.154282
-7.085800
-13.043762
-18.799103
-24.219467
-29.166229
-33.581879
-37.582306
-41.477341
-45.838989
-51.273895
-58.294724
-66.913513
-76.544189
-85.846420
-92.926025
-95.752869
-92.694458
-83.044006
-67.192238
-46.630280
-23.432678
0.122208
22.037582
40.884003
55.810020
66.551994
73.223701
76.231888
76.057182
73.302864
68.607109
62.672150
56.206879
49.879066
44.202766
39.454964
35.726990
32.990509
31.239815
30.543571
30.983261
32.534206
34.871101
37.362057
39.139832
39.447952
37.835262
34.373531
29.544701
23.993263
18.287151
12.635033
6.903812
0.774006
-6.007111
-13.508492
-21.497110
-29.639231
-37.660065
-45.421432
-53.056911
-60.909622
-69.437698
-79.019272
-89.836388
-101.596565
-113.332901
-123.343658
-129.392990
-129.231033
-121.276825
-105.154533
-81.925140
-53.888012
-23.977814
4.973932
30.693956
51.858730
67.995087
79.254616
86.155594
89.367645
89.548447
87.375931
83.567139
78.782242
73.687134
68.747986
64.237579
60.165836
56.482670
53.152817
50.347031
48.448090
47.713463
48.181679
49.486725
50.880119
51.563896
50.968262
48.889442
45.502533
41.208778
36.370590
31.200195
25.716934
19.711121
12.945198
5.239975
-3.465584
-13.070343
-23.213890
-33.434128
-43.206764
-52.097549
-59.960716
-66.974937
-73.667564
-80.851524
-89.323822
-99.457748
-110.994774
-122.734825
-132.671371
-138.423218
-137.772537
-129.231277
-112.533066
-88.666351
-59.681702
-28.279022
2.810257
31.223862
55.224869
73.835190
86.819473
94.456238
97.469070
96.859924
93.671494
88.815475
82.952972
76.259964
68.690323
60.355789
51.662628
43.553497
37.226303
33.618683
33.082687
35.222260
38.997742
43.152817
46.596085
48.567474
48.750656
47.223587
44.241226
40.157074
35.347427
29.992035
24.099792
17.568893
10.288757
2.378357
-5.853653
-14.120590
-22.243454
-30.242477
-38.325073
-46.674011
-55.433426
-64.762466
-74.746536
-85.404739
-96.420929
-106.824905
-114.875351
-118.305481
-114.947021
-103.427765
-83.854080
-57.807678
-28.008957
2.395386
30.564728
54.521576
73.221298
86.413422
94.371124
97.533722
96.439056
91.785675
84.397858
75.335175
65.662796
56.377197
48.167526
41.429779
36.279816
32.677475
30.563629
29.888077
30.544937
32.203796
34.280930
36.021149
36.720657
35.862823
33.264984
29.107056
23.690414
17.384735
10.408981
2.894012
-5.141907
-13.515503
-22.022690
-30.315170
-38.109573
-45.322174
-52.104111
-58.833298
-66.064560
-74.290268
-83.753708
-94.164825
-104.460663
-112.858383
-117.097809
-115.039108
-105.247482
-87.534927
-63.121048
-34.388947
-4.279953
24.444611
49.597595
69.796692
84.416931
93.460129
97.427216
97.147018
93.705109
88.266235
81.827209
75.184235
68.823700
63.065018
58.067398
53.890900
50.479889
47.749847
45.644913
44.188324
43.543030
43.882355
45.133179
46.865372
48.251572
48.357971
46.468307
42.402145
36.454346
29.332642
21.841888
14.565521
7.772125
1.365921
-4.927979
-11.420456
-18.357880
-25.843094
-33.817154
-42.177689
-50.828720
-59.540039
-68.051147
-76.044113
-83.325272
-90.028778
-96.599213
-103.605331
-111.404724
-119.608932
-126.847672
-131.001846
-129.691788
-120.996780
-104.176682
-80.005676
-50.590164
-18.976028
11.594925
38.548355
60.267426
76.265549
86.916290
92.886444
94.903519
93.643127
89.811157
84.382919
78.472443
73.038696
68.598465
65.148499
62.250275
59.515930
56.921783
54.741653
53.397552
53.029739
53.365173
53.900894
54.087128
53.583801
52.334305
50.408447
47.779724
44.361481
40.046204
34.729523
28.579117
21.876205
14.955978
8.122589
1.550751
-4.782898
-11.010452
-17.392166
-24.199112
-31.597443
-39.611893
-47.999084
-56.318436
-64.076218
-70.894150
-76.731186
-81.957520
-87.285812
-93.416992
-100.731857
-109.056519
-117.514847
-124.647636
-128.622925
-127.598114
-120.123886
-105.539291
-84.355667
-58.237526
-29.744461
-1.687119
23.516861
44.310699
60.116669
71.117821
77.841789
80.876213
80.795074
78.164818
73.624748
67.892403
61.631889
55.355705
49.420601
44.017113
39.301765
35.447708
32.658318
31.126877
30.976768
32.187805
34.510429
37.412315
40.091354
41.616692
41.290146
38.802498
34.431404
28.912437
22.999199
17.205353
11.492790
5.389931
-1.616821
-9.739410
-18.705902
-27.795395
-36.159378
-43.227234
-48.877983
-53.506432
-57.896935
-62.845345
-68.987900
-76.548981
-85.211250
-94.032814
-101.473000
-105.530670
-104.198013
-96.001884
-80.499176
-58.590294
-32.410973
-4.785179
21.511635
44.282722
62.387222
75.595367
84.226547
88.862000
89.991058
88.038872
83.498344
77.036926
69.434013
61.559002
54.181465
47.855751
42.918663
39.483440
37.557858
37.119530
38.066608
40.159462
42.955654
45.775414
47.764214
48.181408
46.657173
43.361580
38.939217
34.142914
29.512863
25.103159
20.594065
15.553067
9.816298
3.522988
-2.968932
-9.305185
-15.329060
-21.069410
-26.692015
-32.380318
-38.290279
-44.459301
-50.857098
-57.369766
-63.779182
-69.825150
-75.403999
-80.640472
-85.902908
-91.657608
-98.196274
-105.445099
-112.861458
-119.431503
-123.740891
-124.212036
-119.347412
-108.151665
-90.528305
-67.472366
-40.933086
-13.420818
12.607468
35.301643
53.637489
67.400650
76.925278
82.737106
85.374779
85.285156
82.862518
78.535721
72.867844
66.482590
60.050777
54.185108
49.322327
45.718987
43.505894
42.686386
43.196587
44.811298
47.025288
49.158997
50.490913
50.423820
48.782829
45.809967
41.978447
37.737122
33.366631
28.831207
24.006554
18.755959
13.007812
6.833740
0.392700
-6.083862
-12.364174
-18.258980
-23.776566
-29.083397
-34.454102
-40.170036
-46.260788
-52.529968
-58.714584
-64.618881
-70.227112
-75.750000
-81.421112
-87.434334
-93.768822
-100.123375
-105.825821
-109.768013
-110.472717
-106.423065
-96.518028
-80.561409
-59.492287
-35.290688
-10.428413
12.726891
32.451370
47.911324
59.108887
66.512245
70.831818
72.661606
72.357132
70.116302
66.058563
60.453011
53.812477
46.900757
40.471008
35.176498
31.345779
29.021469
28.075867
28.282379
29.357834
30.947113
32.657516
34.036728
34.675583
34.293030
32.770950
30.167801
26.669128
22.492081
17.810760
12.769913
7.342880
1.477051
-4.942032
-11.974014
-19.456085
-27.069122
-34.372528
-40.997360
-46.775299
-51.876389
-56.678406
-61.745529
-67.640320
-74.646255
-82.587143
-90.713058
-97.655731
-101.698151
-101.226151
-95.043442
-82.850952
-65.300446
-43.870010
-20.609940
2.277573
22.859955
39.748245
52.251663
60.399796
64.701111
65.832962
64.469681
61.074570
55.995544
49.608444
42.396347
34.943222
27.866135
21.733383
16.990936
13.928299
12.584854
12.796555
14.118423
15.963837
17.675461
18.764450
18.949463
18.156204
16.451248
13.808029
10.235031
5.642593
0.106750
-6.126740
-12.680771
-19.161133
-25.338638
-31.150909
-36.776093
-42.535080
-48.810165
-55.861481
-63.744690
-72.133011
-80.332085
-87.250114
-91.528244
-91.740501
-86.730576
-75.961563
-59.741234
-39.345390
-16.735054
5.832565
26.374306
43.503220
56.602989
65.658951
70.969795
73.008286
72.309082
69.447906
65.019646
59.477066
53.124008
46.171959
38.899712
31.817741
25.586540
20.873940
18.106422
17.286102
17.984863
19.581131
21.377724
22.799637
23.376534
22.774551
20.775101
17.417412
12.917519
7.625824
1.864082
-4.169670
-10.411026
-16.908363
-23.672272
-30.769066
-38.205757
-45.950508
-53.957581
-62.131943
-70.413345
-78.782516
-87.316597
-95.959503
-104.330086
-111.387970
-115.514305
-114.897278
-108.037582
-94.383575
-74.466316
-49.914005
-22.999805
3.776985
28.175697
48.555702
63.936138
74.131180
79.471222
80.701767
78.789459
74.800095
69.747963
64.519768
59.785667
55.860374
52.761162
50.258102
48.119614
46.256424
44.758339
43.726929
43.191391
43.049873
43.038975
42.865269
42.149055
40.484676
37.602730
33.366734
27.918903
21.630798
14.893358
7.845494
0.402657
-7.713371
-16.627832
-26.022770
-35.302376
-43.790894
-51.115845
-57.370651
-63.158710
-69.214134
-76.185150
-84.449005
-93.935883
-104.097282
-113.788635
-121.258942
-124.371880
-121.137047
-110.188843
-91.420624
-66.124420
-36.729095
-6.242981
22.355980
46.829643
65.930000
79.475327
88.080376
92.695358
94.276802
93.519882
90.910576
86.815895
81.684296
76.118568
70.616051
65.392372
60.376320
55.485428
50.884621
47.013451
44.506424
43.809937
45.124817
47.955467
51.177986
53.452950
53.759872
51.770233
47.726486
42.292427
36.224731
30.435593
25.252975
20.350731
15.012100
8.728142
1.527023
-6.120544
-13.536758
-20.029465
-24.734734
-27.269806
-27.868507
-27.258316
-26.134750
-25.010681
-24.028801
-22.745079
-22.632874
-22.724831
-19.711426
-10.360573
5.425133
24.570087
42.529999
55.171772
60.029331
56.692818
46.766476
32.680676
16.852360
1.131317
-12.801937
-23.569603
-30.424232
-33.255421
-32.512020
-28.795933
-23.149021
-16.923002
-11.662241
-8.079370
-5.793124
-3.490399
0.443995
7.408454
18.079056
32.084251
48.536747
65.096939
79.458748
89.578827
93.896378
91.693474
83.218849
69.772850
52.926582
36.237778
21.567799
9.135674
-2.179684
-13.955662
-27.612022
-42.332249
-56.140900
-66.017441
-69.370010
-65.637695
-56.291969
-44.272156
-32.894096
-24.491074
-19.999962
-18.456436
-16.723015
-10.967331
1.190231
19.828514
42.646576
65.633804
84.580170
95.572693
97.401886
92.914459
86.647354
81.894455
79.517822
78.194260
75.265930
67.869263
55.867569
39.830994
23.221680
9.726822
0.453857
-6.121567
-12.737274
-21.801666
-34.481110
-54.541199
-82.272537
-113.167236
-141.852615
-165.847290
-185.817688
-203.460129
-220.226349
-236.887634
-259.112122
-289.020447
-322.584229
-353.195099
-375.625366
-386.428406
-383.224548
-365.146210
-299.842102
-188.154922
-63.622238
37.550339
102.301331
136.703415
152.553619
159.384338
162.282898
162.854019
155.962418
140.572617
122.057816
107.606506
100.725449
100.651398
104.443924
108.821899
111.374237
107.052444
95.058418
79.887253
67.393944
60.577629
59.168251
61.050316
63.673927
65.046211
61.600883
52.796310
41.654404
32.233780
26.696709
25.093719
26.017094
27.560658
28.117397
25.781689
20.296825
13.412624
7.281670
2.777342
-0.135046
-1.852299
-2.304146
-1.080107
1.279242
2.678799
-0.155708
-10.864201
-31.794987
-61.319477
-94.250023
-123.455566
-142.826721
-149.394791
-143.468719
-126.962090
-100.604767
-66.344772
-25.647469
18.049088
58.908131
90.130966
106.918869
108.808212
99.836166
86.323776
73.684563
65.027832
60.184410
57.213905
54.039307
49.765278
44.644627
39.676117
35.793839
33.379189
32.565670
32.789948
33.421101
33.660431
33.187935
32.154140
31.064701
30.393867
30.195353
30.094803
29.263739
26.937996
22.771898
17.266750
11.116951
5.097443
-0.377413
-5.505707
-10.907478
-17.194868
-24.647982
-33.019901
-41.432320
-48.664940
-53.398926
-54.582489
-51.687462
-44.835651
-34.805843
-22.840874
-10.529434
0.607225
9.332520
14.987770
17.436249
17.016024
14.329592
10.184301
5.377300
0.523228
-3.934488
-7.767244
-10.900599
-13.305025
-15.103024
-16.483534
-17.640106
-18.760540
-19.896599
-20.975399
-21.857613
-22.381950
-22.550987
-22.655804
-23.259468
-24.923901
-27.939987
-32.169552
-37.089916
-42.110245
-46.623043
-50.341816
-53.256908
-55.634094
-57.834641
-60.363762
-63.796928
-68.639709
-75.093384
-82.450943
-89.249298
-93.553810
-93.622993
-88.340607
-77.540924
-61.735771
-41.485168
-19.080147
3.164932
23.132721
39.245132
50.645020
57.302658
59.882401
59.419128
56.889389
52.870926
47.753967
41.635513
34.590408
26.768326
18.639526
10.943604
4.578537
0.357910
-1.329330
-0.442093
2.440201
6.307068
9.899475
12.135925
12.345673
10.274933
6.110138
0.349640
-6.129425
-12.323090
-17.412354
-21.078491
-23.670654
-26.122131
-29.664032
-35.171143
-42.800598
-51.608429
-59.711578
-64.699829
-64.304993
-57.011322
-42.462036
-21.665466
3.264435
29.549194
54.494476
75.947449
92.639679
104.049927
110.227356
111.592926
108.793396
102.733368
94.438080
85.007599
75.432373
66.410248
58.271362
51.072784
44.775970
39.430603
35.277100
32.497314
31.103241
30.702728
30.459015
29.347595
26.491821
21.549286
14.845917
7.253113
-0.283508
-7.176270
-13.455566
-19.708923
-26.730286
-35.139130
-45.006592
-55.803528
-66.393097
-75.196198
-80.370636
-80.198212
-73.430939
-59.664124
-39.632599
-15.237183
10.911102
36.016418
57.736664
74.720764
86.544220
93.557434
96.510071
96.191681
93.259247
88.356262
82.165710
75.383301
68.679047
62.454010
56.859406
51.884766
47.522949
43.878845
41.155731
39.547607
38.922180
38.780396
38.321106
36.714752
33.352264
27.992554
20.825836
12.341736
3.185547
-5.993744
-14.655579
-22.580872
-29.910156
-37.139679
-45.024963
-54.071594
-64.139893
-74.267120
-82.695770
-87.300507
-86.241302
-78.543457
-64.311798
-44.814758
-22.052887
1.575043
23.783691
42.727325
57.374268
67.552063
73.744415
76.852936
77.769470
77.149200
75.326263
72.411774
68.532715
63.858887
58.716766
53.446930
48.359222
43.645752
39.409637
35.697937
32.482788
29.817474
27.647827
25.820679
24.085693
21.960999
18.929321
14.615784
9.069153
2.688843
-3.826111
-9.843292
-15.084503
-19.647430
-23.910309
-28.279602
-33.079376
-38.521851
-44.810822
-52.129028
-60.416504
-69.193756
-77.401886
-83.544342
-85.937622
-83.239288
-74.800812
-60.899109
-42.727325
-22.205566
-1.492584
17.421967
33.165894
45.234741
53.785583
59.274719
62.161484
62.730042
61.163956
57.763321
53.067627
47.786209
42.602020
37.962509
34.016937
30.756760
28.148804
26.257523
25.172150
24.922958
25.366760
26.178741
26.877838
26.980743
26.109222
24.030090
20.779892
16.583206
11.817154
6.895950
2.108368
-2.532608
-7.153809
-11.981567
-17.171280
-22.663475
-28.242996
-33.564232
-38.300644
-42.292122
-45.736290
-49.074753
-52.937546
-57.932228
-64.277977
-71.775589
-79.653976
-86.695557
-91.467522
-92.624451
-89.157867
-80.678047
-67.579414
-50.978622
-32.618855
-14.406521
1.943306
15.274487
25.143692
31.712605
35.506050
37.108849
37.105667
35.852985
33.655334
30.846416
27.799953
24.956944
22.715988
21.233093
20.390202
19.903837
19.339684
18.458725
17.334980
16.208210
15.493675
15.360207
15.658005
15.932343
15.722168
14.705399
12.863651
10.376305
7.373169
3.915100
-0.123878
-4.807381
-10.042931
-15.487427
-20.687531
-25.283524
-29.151794
-32.507568
-35.664642
-39.071930
-43.072273
-47.901031
-53.532310
-59.711449
-65.855247
-71.108253
-74.421219
-74.638168
-70.871254
-62.702034
-50.454659
-35.310791
-18.997467
-3.351151
10.260803
21.244339
29.773270
36.354385
41.432114
45.077377
46.952469
46.735825
44.332809
40.064346
34.591278
28.698303
23.050858
18.089798
14.088120
11.073822
8.997040
7.682556
6.906677
6.400604
5.942551
5.197754
3.845184
1.643539
-1.484207
-5.257965
-9.204071
-12.846832
-15.925919
-18.558960
-21.119186
-23.968597
-27.212906
-30.743011
-34.285492
-37.734177
-41.275375
-45.282501
-50.181961
-56.133118
-62.843506
-69.592972
-75.390823
-79.020035
-79.334198
-75.447784
-66.967453
-54.162018
-38.012344
-20.033676
-1.934799
14.719910
28.835999
39.874680
47.731689
52.611694
54.800354
54.681885
52.737137
49.592209
45.948730
42.356033
39.140152
36.271133
33.634949
31.168015
28.982681
27.376129
26.635941
26.802002
27.639877
28.625946
29.172913
28.846451
27.394135
24.839554
21.321823
17.098389
12.403046
7.417709
2.277206
-3.062408
-8.638275
-14.488907
-20.514587
-26.558441
-32.411530
-37.915176
-43.020569
-47.710266
-52.143784
-56.525238
-61.263260
-66.890152
-73.848663
-82.156128
-91.090485
-99.170059
-104.445068
-105.132538
-100.089218
-89.189163
-73.215820
-53.647293
-32.254684
-10.898956
8.742706
25.454041
38.553818
48.098984
54.597031
58.819199
61.432190
62.785965
62.951080
61.903214
59.797714
56.906433
53.648865
50.400177
47.333176
44.585419
42.197052
40.263336
38.876602
38.122452
37.839828
37.776642
37.491409
36.361023
33.900360
29.873367
24.439255
18.259048
12.199966
6.898117
2.572464
-1.127243
-4.993217
-9.733635
-15.784615
-23.114090
-31.287964
-39.734612
-47.902779
-55.413986
-62.081482
-68.017426
-73.561874
-79.163826
-85.212303
-91.587532
-97.629677
-102.178368
-103.764587
-101.027534
-93.031364
-79.409058
-60.641273
-38.034935
-13.482903
10.737000
32.529556
50.446365
63.877602
72.944794
78.249931
80.411720
79.895821
77.141228
72.534439
66.607445
59.982727
53.219467
46.844589
41.257065
36.808392
33.724209
32.132191
31.935703
32.755638
34.084450
35.322376
36.040726
35.989105
35.119999
33.471767
31.156036
28.214298
24.590584
20.149086
14.618210
7.798397
-0.385262
-9.652084
-19.477814
-29.165621
-38.090401
-46.019661
-53.150848
-60.126503
-67.638237
-76.007805
-84.870941
-93.110947
-99.133301
-101.200836
-98.027603
-88.914108
-74.067719
-54.494347
-31.819805
-8.050255
14.801841
35.005474
51.378155
63.366638
71.059410
74.830338
75.292648
73.017273
68.583107
62.573925
55.560760
48.178848
40.955162
34.397827
28.800531
24.429317
21.395721
19.677776
19.032875
18.973637
18.957172
18.481081
17.345205
15.452450
12.740017
9.062174
4.124092
-2.277811
-9.985516
-18.410782
-26.709492
-34.075050
-40.226936
-45.442650
-50.491745
-56.278019
-63.382607
-71.921204
-81.424683
-90.909325
-99.008423
-104.124458
-104.629898
-99.182632
-87.042679
-68.337616
-44.282364
-17.014114
10.586266
35.694328
56.151047
70.946106
80.320290
85.313423
87.204407
86.923782
84.863678
80.940292
75.166496
67.844925
59.624031
51.393913
43.986969
38.065704
33.910873
31.552223
30.751480
31.098946
32.113625
33.244194
33.997147
33.865341
32.340752
29.007889
23.700935
16.622894
8.452209
0.051254
-7.889168
-15.054604
-21.749939
-28.471878
-35.648544
-43.312439
-51.235397
-59.120346
-67.047073
-75.517365
-85.063705
-95.812073
-106.922348
-116.414001
-121.686325
-120.340973
-110.967773
-93.610062
-69.867386
-42.287750
-13.719406
13.312393
37.102814
56.693817
71.715576
82.223206
88.527374
91.131668
90.787750
88.327362
84.597855
80.354691
76.060303
71.951370
68.043564
64.352692
60.906830
57.892975
55.453369
53.618729
52.260712
51.066803
49.678711
47.755112
45.041550
41.436111
36.976044
31.715317
25.708115
19.028427
11.780823
4.112350
-3.733749
-11.542450
-19.149612
-26.406754
-33.257996
-39.749222
-46.068832
-52.687668
-60.209366
-69.250671
-80.025681
-92.043503
-103.863434
-113.383102
-118.332474
-116.824799
-107.978500
-91.998001
-70.139206
-44.363358
-16.994049
9.689102
33.767990
53.912033
69.542480
80.678528
87.770874
91.390121
92.080475
90.373581
86.870911
82.181992
76.860947
71.344650
65.854233
60.481262
55.400162
50.931915
47.513489
45.506744
44.983475
45.595673
46.632553
47.189865
46.554016
44.381729
40.781235
36.235062
31.259750
26.223816
21.022385
15.278091
8.551880
0.717697
-7.897552
-16.659180
-24.904343
-32.323273
-38.911179
-44.943695
-50.708786
-56.499176
-62.603134
-69.389404
-77.236847
-86.176270
-95.662262
-104.325256
-110.212555
-111.335480
-106.259262
-94.549332
-76.864685
-54.760773
-30.375214
-5.994522
16.383896
35.322006
50.105377
60.667923
67.368286
70.730560
71.208672
69.194901
65.119873
59.615166
53.444519
47.379547
41.980659
37.521957
34.031944
31.418335
29.622116
28.640205
28.469894
28.953674
29.759705
30.354309
30.116982
28.545288
25.442078
20.985634
15.665993
10.087837
4.689995
-0.380753
-5.288086
-10.330093
-15.652206
-21.125999
-26.400032
-31.185402
-35.502945
-39.821655
-44.860451
-51.255257
-59.218369
-68.188156
-76.893936
-83.571381
-86.387238
-83.848900
-75.292961
-60.977516
-42.076569
-20.481873
1.789261
22.848785
41.306534
56.261013
67.299332
74.300758
77.374268
76.832130
73.163025
67.098907
59.467525
51.151577
42.870758
35.242897
28.680244
23.515411
19.988827
18.078140
17.534197
17.770271
18.012100
17.605696
16.205925
13.921930
11.232948
8.699457
6.605294
4.911893
3.209825
0.998263
-2.000635
-5.887986
-10.632536
-16.163507
-22.426411
-29.290102
-36.433250
-43.444191
-50.011929
-56.075165
-62.004265
-68.369408
-75.527092
-83.041458
-89.653786
-93.384857
-92.267342
-85.011681
-71.470245
-52.817413
-31.080814
-8.554764
12.781054
31.568089
47.061817
58.954216
67.080711
71.463257
72.336014
70.372086
66.590675
62.156227
58.023808
54.689034
52.139763
50.013954
47.885464
45.468204
42.743622
39.859795
37.058037
34.556465
32.539505
31.119469
30.247406
29.698410
29.149849
28.237534
26.678230
24.313385
21.085785
17.036041
12.233315
6.836357
1.093010
-4.679573
-10.234879
-15.472443
-20.550903
-25.721611
-31.187546
-36.956528
-42.804794
-48.437180
-53.672409
-58.437027
-62.811401
-66.954025
-71.081314
-75.454620
-80.365387
-85.980774
-92.086609
-97.856995
-101.912659
-102.547134
-98.258224
-88.300919
-72.888687
-53.339584
-31.578125
-9.703613
10.500183
27.877838
41.901123
52.522018
59.961166
64.602844
66.858032
67.224121
66.195557
64.239807
61.704437
58.767624
55.495209
51.979431
48.417755
45.159103
42.580765
40.931213
40.158783
40.001694
40.048065
39.906021
39.251160
37.873154
35.592850
32.345367
28.264877
23.582748
18.758636
14.238373
10.249100
6.653030
3.138870
-0.691086
-4.954254
-9.431412
-13.761551
-17.617355
-20.939499
-23.976837
-27.125290
-30.712051
-34.844376
-39.384552
-44.054367
-48.612030
-52.904312
-56.926941
-60.808105
-64.717484
-68.902802
-73.652878
-79.135849
-85.179199
-91.183578
-95.998047
-98.172470
-96.238800
-89.078293
-76.388031
-58.807175
-37.869385
-15.658325
5.643906
24.197540
38.843277
49.201340
55.601669
58.767517
59.573135
58.793335
56.927002
54.341904
51.245331
47.778961
44.077667
40.239853
36.376907
32.702789
29.573898
27.350327
26.295303
26.425095
27.384003
28.667938
29.733917
30.170654
29.760773
28.370605
25.873291
22.236328
17.641479
12.515228
7.518097
3.124390
-0.531311
-3.733612
-6.992920
-10.682434
-14.847107
-19.287170
-23.723022
-27.989166
-32.181641
-36.481628
-41.039734
-45.936096
-51.202087
-56.870453
-62.939209
-69.139404
-74.658905
-78.218536
-78.301270
-73.623901
-63.720917
-49.149780
-31.359558
-12.285492
6.191223
22.662781
36.303467
46.744354
53.934326
57.971710
59.083221
57.660797
54.245728
49.470367
43.894989
37.974731
31.979767
26.119568
20.700562
16.056610
12.584717
10.521118
9.816803
10.160828
11.033813
11.937683
12.486328
12.480438
11.883148
10.756683
9.100525
6.879517
3.998840
0.278992
-4.393768
-10.009064
-16.357635
-23.025391
-29.570068
-35.622223
-41.053467
-45.945923
-50.544769
-55.133591
-60.012634
-65.515335
-71.825485
-78.862640
-85.917557
-91.623932
-94.032074
-91.266739
-82.160980
-66.726959
-46.395401
-23.434631
-0.428131
20.475403
37.946243
51.481216
61.213211
67.542953
70.890259
71.555603
69.931015
66.446976
61.754318
56.616516
51.681351
47.371323
43.757187
40.742401
38.142197
36.032272
34.583923
34.052780
34.511597
35.649429
36.962357
37.833786
37.792099
36.499146
33.968430
30.329453
25.850891
20.889252
15.667236
10.296219
4.746811
-1.099884
-7.314301
-13.802795
-20.356918
-26.828842
-33.137527
-39.427994
-45.923523
-52.675064
-59.542953
-66.256104
-72.622925
-78.754318
-85.137848
-92.291229
-100.473953
-109.288422
-117.563568
-123.542084
-125.257126
-121.119537
-110.354599
-93.285980
-71.194366
-46.165680
-20.446655
3.911545
25.393753
43.101639
56.707230
66.273315
72.143127
74.946930
75.371445
74.235550
72.190628
69.643234
66.723160
63.481125
59.941864
56.264168
52.792740
49.916763
48.006607
47.213577
47.461227
48.375839
49.490906
50.299713
50.388634
49.556694
47.729622
44.937881
41.189690
36.494629
30.918709
24.669395
18.111748
11.577347
5.183556
-1.280388
-8.236519
-16.111801
-25.052727
-34.783997
-44.754486
-54.291283
-62.949516
-70.567535
-77.342957
-83.650284
-90.002258
-96.858650
-104.464363
-112.628052
-120.503403
-126.647888
-129.133087
-126.103714
-116.278152
-99.418228
-76.509537
-49.476761
-20.786751
7.189314
32.468555
53.745567
70.347954
82.126541
89.358192
92.648514
92.837021
90.774178
87.326271
83.149124
78.704453
74.284760
70.067612
66.193062
62.748817
59.788624
57.296898
55.295639
53.819588
52.908463
52.558762
52.613365
52.754593
52.515560
51.398575
48.996582
45.118179
39.807640
33.264118
25.825493
17.839233
9.571880
1.101013
-7.655838
-16.808296
-26.259674
-35.753262
-44.822250
-52.961403
-59.975361
-65.898026
-71.076897
-75.983444
-81.249306
-87.483459
-95.182838
-104.461502
-114.611717
-124.065315
-130.472061
-131.393463
-125.114769
-111.222504
-90.740257
-65.676445
-38.425850
-11.204384
14.189575
36.476006
54.676414
68.183243
76.836380
80.994530
81.471848
79.340813
75.635498
71.079086
66.109055
60.842438
55.342682
49.835083
44.710693
40.531693
37.791245
36.807022
37.460892
39.180283
41.159897
42.439606
42.339813
40.527420
37.059875
32.292496
26.613907
20.287796
13.350906
5.758606
-2.489975
-11.150284
-19.823837
-28.072128
-35.651688
-42.684875
-49.579391
-56.859146
-64.862518
-73.677002
-83.081604
-92.533295
-101.125168
-107.551422
-110.195572
-107.428925
-98.031952
-81.690414
-59.320831
-32.954117
-5.244339
21.148743
44.297607
63.132568
77.340027
87.107056
92.797791
94.850281
93.777100
90.176697
84.801819
78.446106
71.772552
65.217224
59.036072
53.358490
48.400299
44.451324
41.807739
40.557526
40.407013
40.725861
40.647583
39.411285
36.554504
32.107880
26.528748
20.380737
14.195496
8.162964
2.168335
-4.127869
-11.141510
-19.182587
-28.280548
-38.053253
-47.850922
-56.893158
-64.703918
-71.384796
-77.605103
-84.486725
-93.032806
-103.580627
-115.408752
-126.635925
-134.481750
-136.040436
-129.141144
-112.952850
-88.412506
-57.993896
-24.959564
7.388916
36.445496
60.680420
79.346375
92.332916
99.988617
102.949127
102.288605
99.331207
95.380615
91.413513
87.851318
84.563049
81.170227
77.396515
73.147125
68.616058
64.175415
60.200531
57.002808
54.727173
53.265503
52.309174
51.324188
49.708679
47.043457
43.190369
38.137360
32.043457
25.183105
17.822510
10.356750
3.138153
-3.708099
-10.327850
-17.162415
-24.720367
-33.261414
-42.613953
-52.219147
-61.365326
-69.624969
-77.074066
-84.284149
-92.084198
-101.130066
-111.419952
-122.050171
-131.215637
-136.502899
-135.556152
-126.787872
-109.927185
-86.052185
-57.286652
-26.151642
4.942261
34.011505
59.560730
80.473572
95.988892
105.893494
110.589417
111.100189
108.758301
104.855530
100.264801
95.332397
90.047058
84.360046
78.513367
73.073517
68.749298
66.063843
65.146515
65.614685
66.760437
67.828918
68.232483
67.632935
65.919128
63.098816
59.208618
54.398438
48.803741
42.622803
35.904846
28.496460
20.205139
10.992188
1.253113
-8.247894
-16.639313
-23.449799
-28.858704
-33.553040
-38.446564
-44.094177
-50.601654
-57.758423
-65.256073
-72.925690
-80.744720
-88.772736
-96.963196
-105.298157
-113.651398
-121.678864
-128.597015
-132.913483
-132.706024
-126.338043
-113.015625
-93.209686
-68.506317
-41.014374
-12.823883
14.276184
38.833618
59.618439
75.651154
86.431519
92.122314
93.284698
90.883057
85.945068
79.437927
72.326447
65.495270
59.674164
55.279907
52.341339
50.490173
49.366669
48.710388
48.357849
48.242920
48.098236
47.527374
46.095367
43.535187
39.818542
35.236115
30.194122
25.100555
20.217804
15.556122
10.699677
5.054077
-1.907227
-10.353363
-19.811371
-29.294952
-37.698761
-44.273468
-48.971680
-52.467041
-55.857666
-60.144745
-66.097321
-73.920380
-83.236328
-93.039764
-101.636932
-106.884277
-106.557922
-99.025513
-83.764313
-61.644226
-34.733826
-5.792328
22.394958
47.554993
68.228424
83.726074
93.967773
99.278412
100.161102
97.378082
91.737823
84.162903
75.636536
67.053741
59.050385
52.021393
46.117615
41.343018
37.699890
35.245758
34.032532
34.048615
35.084778
36.693115
38.259491
39.038757
38.316925
35.582275
30.756226
24.192719
16.712982
9.259689
2.584686
-3.099716
-8.149185
-13.357071
-19.484497
-26.860260
-35.282852
-44.015884
-52.268417
-59.489929
-65.602615
-71.025314
-76.461472
-82.588333
-89.861313
-98.322159
-107.507538
-116.386826
-123.474350
-126.962189
-125.013412
-116.216141
-100.033966
-77.118179
-49.364273
-19.557465
9.307281
34.651443
54.940582
69.808060
79.769409
85.774918
88.747375
89.353027
87.973526
84.872986
80.342667
74.762527
68.696564
62.659973
57.161713
52.520935
48.862839
46.183044
44.382675
43.403000
43.174881
43.681808
44.719536
45.931610
46.831490
46.889015
45.767441
43.323380
39.476303
34.207436
27.593948
19.931435
11.805420
3.976639
-2.971458
-8.929550
-14.260406
-19.688301
-25.763779
-32.625809
-40.074516
-47.695004
-55.125469
-62.209785
-68.881226
-75.106934
-80.923355
-86.535416
-92.318649
-98.563416
-105.075943
-110.808395
-113.972473
-112.502464
-104.821785
-90.413300
-70.087433
-45.722118
-19.751812
5.417333
27.867277
46.351749
60.327187
69.832436
75.189651
76.927521
75.675308
72.165604
67.337845
62.114006
57.331093
53.491928
50.693336
48.672348
47.058270
45.582272
44.227390
43.135513
42.449310
42.129921
41.913643
41.458645
40.451332
38.754555
36.393326
33.511406
30.255997
26.776138
23.012764
18.823616
14.073639
8.742439
3.046906
-2.764587
-8.477173
-14.102448
-19.875320
-26.142799
-33.090508
-40.571060
-48.116028
-55.132248
-61.195312
-66.292862
-70.734985
-75.133453
-80.052292
-85.852737
-92.564224
-99.857162
-107.013229
-112.973145
-116.468109
-116.097092
-110.711563
-99.568604
-82.766373
-61.254227
-36.851181
-11.740814
11.926559
32.494354
48.989761
61.047455
68.733337
72.376144
72.551178
70.085175
66.046997
61.528839
57.325058
53.722321
50.526627
47.340271
43.919662
40.320099
36.865189
33.910156
31.659683
30.126282
29.181854
28.602539
28.141251
27.465851
26.222931
24.096298
20.960739
16.984421
12.338470
7.182281
1.525665
-4.583542
-11.001541
-17.305634
-23.065460
-27.954422
-31.945969
-35.417419
-38.889954
-42.865616
-47.773651
-53.953705
-61.521591
-70.343292
-79.761505
-88.481781
-94.834732
-97.086700
-93.929626
-84.929230
-70.559174
-52.062378
-31.217804
-9.912537
10.198975
27.917419
42.609528
54.140961
62.622192
68.263763
71.284821
71.801056
69.955963
66.080566
60.503204
53.787354
46.535400
39.378937
32.968842
27.846954
24.341522
22.427612
21.838409
22.047485
22.552826
22.922150
22.787415
21.907043
20.150208
17.579529
14.390381
10.928375
7.453461
4.091003
0.771057
-2.787933
-6.895447
-11.850067
-17.948334
-25.309631
-33.759308
-42.768250
-51.442322
-58.901978
-64.649506
-68.835571
-72.277588
-76.128754
-81.347260
-88.208710
-96.215820
-104.127777
-110.283386
-112.971558
-110.777283
-102.800598
-88.889984
-69.736908
-46.762451
-21.950012
2.570770
24.913483
43.633972
57.967865
67.804321
73.678772
76.460938
77.157227
76.509216
74.871552
72.245605
68.541260
63.798309
58.325043
52.628662
47.182892
42.348083
38.358459
35.391022
33.565765
32.928131
33.297272
34.206238
34.897949
34.544128
32.574219
28.818451
23.621155
17.664551
11.701385
6.266754
1.510986
-2.851196
-7.354156
-12.483551
-18.431335
-24.984009
-31.649292
-38.000610
-43.844360
-49.344788
-54.807495
-60.556732
-66.737701
-73.408173
-80.487549
-87.674377
-94.330414
-99.391663
-101.525177
-99.394287
-92.073242
-79.335968
-61.829742
-40.896667
-18.267120
4.217133
24.914185
42.586884
56.439606
66.170990
71.866516
73.792511
72.421051
68.376495
62.508423
55.834595
49.399017
43.951660
39.728546
36.519501
33.894135
31.528381
29.394623
27.505188
25.860321
24.323883
22.647369
20.763824
18.834229
17.169128
15.950256
15.023895
13.840363
11.796478
8.512665
3.946442
-1.566956
-7.595825
-13.786774
-19.962799
-26.047638
-32.061829
-38.040649
-44.049988
-50.316467
-57.095764
-64.564117
-72.610840
-80.626801
-87.327576
-90.934784
-89.590210
-81.940613
-67.820496
-48.358704
-25.798492
-2.858459
18.075958
35.494446
48.840546
58.242859
64.090363
66.745789
66.486938
63.664520
58.848694
52.768890
46.319427
40.284546
35.158295
31.168976
28.124451
25.687805
23.561981
21.632080
20.094543
19.336334
19.583710
20.704407
22.143860
23.023651
22.538208
20.230377
16.135803
10.691956
4.429047
-2.303360
-9.379486
-16.829865
-24.646271
-32.618164
-40.337463
-47.372391
-53.567947
-59.132904
-64.771790
-71.319550
-79.210938
-88.113144
-96.695770
-102.875870
-104.466614
-99.850266
-88.446838
-70.927200
-48.912491
-24.527863
-0.026703
22.663162
42.098389
57.431793
68.343323
75.015717
77.949112
77.821732
75.409332
71.428894
66.563843
61.319855
55.960342
50.554459
45.147629
39.892838
35.160583
31.575226
29.657578
29.563660
31.014023
33.264999
35.422516
36.712936
36.538513
34.570023
30.775391
25.484528
19.252960
12.818497
6.747787
1.240540
-3.923004
-9.308731
-15.412247
-22.392776
-30.201508
-38.562943
-47.187698
-55.850311
-64.326324
-72.365707
-79.806412
-86.674622
-93.147705
-99.456360
-105.365189
-109.899460
-111.547379
-108.563553
-99.637039
-84.490402
-64.026077
-40.077499
-14.942535
9.203644
30.778091
48.832825
63.029022
73.474304
80.318237
83.737778
84.016449
81.587769
77.285156
72.165176
67.198151
63.032944
59.829742
57.282410
54.972427
52.656952
50.323502
48.206863
46.603195
45.611931
45.076950
44.573044
43.525032
41.451508
38.187996
33.922363
29.121780
24.284302
19.508255
14.483940
8.665886
1.637497
-6.486282
-15.048958
-23.162308
-30.138115
-35.855103
-40.801292
-45.671539
-51.100838
-57.407303
-64.593445
-72.529053
-81.146835
-90.302170
-99.521461
-107.814407
-113.527641
-114.648285
-109.392212
-96.872200
-77.572762
-53.468658
-27.463013
-2.494781
19.250267
36.908447
50.632469
61.136612
69.023567
74.478996
77.334724
77.458809
75.206306
71.316162
66.756134
62.174271
57.730461
53.201859
48.379440
43.422958
38.939865
35.773125
34.476067
35.066940
36.946838
39.025093
40.289101
40.034401
38.015160
34.517838
29.997787
24.892090
19.430008
13.692429
7.573868
0.947922
-6.212692
-13.817009
-21.519817
-28.882870
-35.484215
-41.129280
-45.911922
-50.363117
-55.153397
-60.897381
-67.786713
-75.383209
-82.744644
-88.522339
-91.246201
-89.640961
-82.820633
-70.504196
-53.158020
-32.048012
-9.000084
13.816929
34.436760
51.471214
64.107025
72.151596
75.830429
75.675491
72.428322
67.144897
60.966042
54.857918
49.440826
44.795944
40.735798
37.113129
34.014954
31.611984
30.073338
29.292892
28.911552
28.587318
28.038132
27.222237
26.106857
24.537209
22.241005
18.899723
14.401016
8.817326
2.503269
-4.274193
-11.282047
-18.440464
-25.615440
-32.582668
-39.010944
-44.699848
-49.764156
-54.635387
-60.068089
-66.753601
-74.863342
-83.753723
-91.874359
-96.994621
-96.933884
-90.175873
-76.405411
-56.684967
-33.131611
-8.332985
15.254230
35.793606
52.285839
64.497337
72.729095
77.522385
79.429207
78.950523
76.590637
72.883926
68.487823
64.103058
60.248341
56.981541
54.074940
51.117313
47.910408
44.720387
42.058960
40.468018
40.116356
40.585716
41.012634
40.495476
38.427193
34.745399
29.833878
24.238441
18.459076
12.807449
7.370430
2.138184
-2.908562
-7.811607
-12.616684
-17.382263
-22.172852
-27.128441
-32.303185
-37.736954
-43.348602
-48.909241
-54.165451
-58.889946
-63.078407
-67.059021
-71.476837
-77.052193
-84.285278
-92.909302
-101.747444
-108.825890
-111.848877
-108.957420
-99.288948
-83.267288
-62.414238
-38.841324
-14.686935
8.302032
28.821342
45.975182
59.212112
68.309692
73.527451
75.573326
75.484642
74.298111
72.765121
71.144081
69.322815
67.052544
64.163704
60.654182
56.758232
52.839066
49.333519
46.630241
44.973793
44.358688
44.431671
44.650650
44.361298
43.144623
40.868790
37.547531
33.335983
28.340714
22.713104
16.637421
10.497894
4.688416
-0.401443
-4.633972
-8.182556
-11.449905
-14.996002
-19.377457
-24.881256
-31.470276
-38.738861
-46.010284
-52.591843
-58.115051
-62.581955
-66.444763
-70.312393
-74.689606
-79.882339
-86.038071
-92.972443
-100.045029
-106.035858
-109.063004
-107.075668
-98.537384
-83.050064
-61.805695
-37.253571
-12.316193
10.518326
29.646576
44.608200
55.619415
63.139206
67.514893
69.009995
67.910294
64.673248
59.999695
54.678558
49.428162
44.674454
40.386475
36.272736
32.067169
27.804413
24.055756
21.576340
20.972839
22.292389
24.869217
27.561584
29.277390
29.383667
27.823380
25.102478
21.757309
18.214844
14.548676
10.550858
5.950012
0.584564
-5.406281
-11.730072
-17.969360
-23.790436
-29.172531
-34.275574
-39.350906
-44.632233
-50.154144
-55.887314
-61.909225
-68.305679
-75.006271
-81.457626
-86.365509
-88.018036
-84.815048
-75.956589
-61.837082
-43.903366
-24.242157
-4.861832
12.754913
27.827209
40.063095
49.479294
56.149139
60.115753
61.414673
60.162582
56.761154
51.813690
46.260300
41.037567
36.847824
34.014389
32.372467
31.468536
30.857895
30.208969
29.267960
27.889328
25.965408
23.528580
20.751022
17.892578
15.147110
12.523788
9.800690
6.669846
2.886414
-1.550598
-6.652679
-12.398636
-18.851410
-25.958847
-33.385406
-40.505936
-46.663544
-51.555588
-55.487656
-59.382217
-64.302612
-71.052399
-79.767197
-89.692245
-99.343353
-106.779617
-110.021927
-107.481430
-98.385025
-82.958908
-62.461853
-38.919235
-14.625336
8.303619
28.209427
44.125259
55.759521
63.401382
67.711700
69.540771
69.684219
68.733810
67.001419
64.596878
61.577026
58.023300
53.931442
49.385208
44.546860
39.858093
35.962509
33.527283
32.935150
34.016281
36.093750
38.156723
39.476440
39.638184
38.599213
36.428757
33.068298
28.331268
22.147827
14.789795
6.805557
-1.018311
-8.172272
-14.571411
-20.503296
-26.355316
-32.429779
-38.712204
-44.960739
-50.901047
-56.349792
-61.393738
-66.323624
-71.505661
-77.273682
-83.844147
-91.195450
-99.056946
-106.838036
-113.520355
-117.642670
-117.476982
-111.306786
-98.155594
-78.133171
-52.765945
-24.714149
2.955757
27.579285
47.536514
62.447456
72.911392
79.815590
83.955269
85.700821
85.185852
82.579323
78.375534
73.327202
68.264389
63.766098
59.992775
56.676048
53.539551
50.548363
48.013878
46.464714
46.216473
47.165325
48.733658
50.134819
50.665844
49.928783
47.866226
44.634167
40.407883
35.363487
29.604565
23.259624
16.520138
9.620300
2.760845
-3.916245
-10.392139
-16.786068
-23.239799
-29.994423
-37.139675
-44.558510
-51.909744
-58.765797
-64.783020
-69.919197
-74.526733
-79.277695
-84.880836
-91.754623
-99.768425
-108.101814
-115.224396
-119.203323
-118.091843
-110.459343
-95.820656
-74.897110
-49.478596
-21.998152
4.958993
29.259350
49.421810
64.623863
74.631897
79.681488
80.480232
78.081123
73.779556
68.736137
63.798660
59.353210
55.374512
51.734425
48.298901
45.074936
42.160889
39.804287
38.248188
37.708412
38.273186
39.725807
41.535820
42.887115
42.980827
41.331524
37.943920
33.172161
27.517181
21.326870
14.671314
7.490795
-0.179344
-8.151440
-16.042538
-23.477005
-30.213776
-36.263794
-41.809685
-47.335693
-53.385880
-60.503304
-68.930801
-78.387138
-88.000931
-96.227364
-101.267929
-101.375710
-95.380280
-82.923889
-64.575798
-41.815147
-16.665451
8.580261
31.852165
51.591240
66.951653
77.772934
84.381042
87.342957
87.204102
84.492722
79.769112
73.575485
66.492233
59.080421
51.807701
45.035286
39.111351
34.364960
31.136833
29.661232
29.849670
31.197578
32.844872
33.849014
33.500854
31.574699
28.335754
24.409264
20.432381
16.746460
13.289566
9.627403
5.144592
-0.638489
-7.883743
-16.348473
-25.467812
-34.618752
-43.352783
-51.481926
-59.108887
-66.602997
-74.292892
-82.493034
-91.342728
-100.648331
-109.697182
-117.191109
-121.295013
-120.017273
-111.865273
-96.271431
-74.055634
-47.211220
-18.425285
9.598129
34.698441
55.562531
71.658394
83.045380
90.182167
93.678490
94.185143
92.351448
88.788696
84.058434
78.705673
73.164215
67.743919
62.624107
57.800835
53.216637
48.932884
45.133324
42.170029
40.318863
39.634804
39.797745
40.275208
40.441704
39.775093
38.050621
35.177429
31.159744
26.062691
20.032745
13.396622
6.592125
0.081367
-5.937813
-11.650291
-17.515732
-24.071510
-31.535240
-39.652962
-47.890472
-55.690727
-62.761574
-69.188988
-75.317589
-81.600113
-88.417770
-95.931900
-104.034096
-112.169113
-119.233932
-123.562073
-123.290237
-116.747368
-103.144638
-82.857567
-57.416832
-29.207703
-0.887253
25.183128
47.322487
64.662659
77.094627
85.005226
89.000786
89.759407
87.972237
84.265900
79.388710
74.067802
68.915009
64.234421
60.005280
56.015358
52.117096
48.460915
45.431023
43.494972
42.920776
43.516548
44.685349
45.671417
45.849464
44.836746
42.597176
39.305008
35.182846
30.398666
24.967743
18.872314
12.185410
5.105080
-2.066071
-9.056168
-15.699471
-22.079544
-28.373360
-34.834747
-41.480232
-48.100708
-54.410904
-60.193855
-65.496506
-70.726952
-76.460075
-83.160301
-90.954498
-99.344673
-107.214767
-112.965652
-114.786674
-111.108307
-101.123795
-84.973053
-63.723320
-39.192276
-13.451263
11.454498
33.772972
52.271065
66.245407
75.486626
80.272499
81.248383
79.233437
75.039597
69.349472
62.650566
55.357712
47.838234
40.524979
33.983055
28.763115
25.279457
23.749718
24.058212
25.713051
28.020950
30.255661
31.782349
32.151993
31.127022
28.560623
24.507256
19.113716
12.603600
5.267746
-2.570175
-10.721748
-18.993561
-27.207535
-35.112595
-42.394447
-48.808838
-54.446030
-59.709229
-65.197060
-71.544518
-78.975517
-87.086578
-94.914848
-100.955017
-103.519455
-101.077995
-92.602303
-77.853790
-57.613022
-33.512947
-7.758881
17.288422
39.694595
58.185204
72.172020
81.621536
86.808022
88.169891
86.371826
82.177780
76.382118
69.831650
63.204796
56.899185
51.143135
46.069939
41.775726
38.527519
36.561966
35.987259
36.695412
38.189468
39.686264
40.345619
39.531113
36.953308
32.755806
27.413582
21.409523
15.144707
8.872879
2.670525
-3.472870
-9.651108
-16.018616
-22.705544
-29.742188
-36.996155
-44.207344
-51.138504
-57.754593
-64.394028
-71.704514
-80.318687
-90.463295
-101.698860
-112.812859
-122.035309
-127.360741
-126.997238
-119.717239
-105.205765
-84.183075
-58.427483
-30.456375
-3.019600
21.517838
41.665070
56.985336
67.901871
75.290398
79.982025
82.537186
83.283730
82.443565
80.320244
77.271553
73.682068
69.747910
65.533287
60.971840
56.099167
51.199188
46.752518
43.305382
41.184669
40.317589
40.183380
40.007500
38.975121
36.648407
32.959778
28.249481
23.039940
17.804726
12.734718
7.747459
2.546913
-3.172104
-9.582802
-16.697456
-24.368393
-32.360542
-40.448425
-48.382996
-55.898567
-62.791313
-69.074875
-75.033676
-81.208031
-88.185493
-96.156021
-104.722252
-112.669601
-118.299805
-119.875587
-116.060867
-106.148956
-90.140076
-68.683540
-42.988335
-14.947441
13.094254
38.628349
59.531548
74.601669
83.791092
87.977463
88.429062
86.239182
82.105263
76.440300
69.644409
62.265648
55.013298
48.509956
43.103661
38.896820
35.883919
34.003143
33.266685
33.547920
34.466629
35.463699
35.858238
35.155411
33.046570
29.573868
24.984795
19.604607
13.775612
7.717361
1.617363
-4.434753
-10.388611
-16.262444
-22.046967
-27.743416
-33.368149
-38.936569
-44.608170
-50.614807
-57.334511
-65.100266
-74.048149
-83.738091
-93.055496
-100.209129
-103.107971
-99.991608
-90.024803
-73.629501
-52.363022
-28.450531
-4.071220
18.989204
39.478348
56.585007
69.690674
78.416252
82.672615
82.904060
80.049232
75.265396
69.571106
63.518707
57.269173
50.704071
43.905342
37.302551
31.595398
27.538651
25.547096
25.626381
27.262276
29.778938
32.434692
34.604774
35.809219
35.740257
34.244934
31.379211
27.429405
22.748405
17.687668
12.361801
6.666878
0.373260
-6.672539
-14.434105
-22.638329
-30.864258
-38.761406
-46.061028
-52.746498
-58.957153
-64.998016
-71.316132
-78.416695
-86.677704
-96.129173
-106.243675
-115.731674
-122.750122
-125.244713
-121.418785
-110.290787
-92.032646
-67.943855
-40.247009
-11.649597
15.408638
39.018883
58.092743
72.373444
82.071564
87.665459
89.726135
88.821358
85.522423
80.521873
74.443039
67.864441
61.301392
55.153099
49.756516
45.399147
42.279907
40.364960
39.468803
39.231598
39.288643
39.456955
39.627762
39.650551
39.223778
37.881447
35.156616
30.920982
25.445030
19.346870
13.326790
7.709595
2.313087
-3.390289
-9.953033
-17.655357
-26.250008
-35.189400
-43.832848
-51.711327
-58.687065
-64.875099
-70.636612
-76.339050
-82.425415
-89.247574
-96.991051
-105.527580
-114.104416
-121.338974
-125.319115
-124.046860
-116.000397
-100.723152
-79.029366
-52.875641
-24.865242
2.468536
27.207161
48.217789
65.096283
77.824730
86.499123
91.289909
92.472427
90.469955
85.975075
79.867271
73.004829
66.061554
59.474007
53.379860
47.826660
42.959061
38.986008
36.224709
34.927124
35.060738
36.275414
37.971367
39.424324
40.001221
39.315582
37.248573
33.944458
29.717979
24.898285
19.778908
14.429268
8.669075
2.187218
-5.304688
-13.782532
-22.802513
-31.617371
-39.508682
-46.048851
-51.310989
-55.917976
-60.699623
-66.448730
-73.638420
-82.263298
-91.805336
-101.216354
-108.958221
-113.204430
-112.252480
-104.864235
-90.717491
-70.581451
-46.135216
-19.639290
6.535416
30.365524
50.436264
66.027847
77.046387
83.744942
86.567451
86.053345
82.840355
77.672104
71.307076
64.418983
57.440674
50.607246
44.085312
38.053001
32.965698
29.394836
27.845787
28.424339
30.641319
33.554733
35.987244
36.952492
35.900856
32.872177
28.319283
22.839371
16.950439
10.859360
4.472534
-2.474144
-10.174507
-18.606064
-27.442383
-36.250061
-44.572792
-52.214806
-59.279175
-66.175995
-73.485855
-81.685875
-90.896454
-100.623528
-109.731117
-116.514435
-119.097794
-115.893250
-106.017899
-89.555351
-67.593407
-41.923355
-14.729721
11.811096
35.833969
55.965721
71.445564
82.093742
88.262177
90.621399
89.973778
87.102432
82.666252
77.154999
70.976852
64.536819
58.199432
52.266403
46.954277
42.380882
38.639061
35.824394
34.053413
33.384094
33.701080
34.655846
35.630791
35.881104
34.744652
31.818657
27.103699
21.051842
14.307846
7.527214
1.093925
-4.979034
-10.981277
-17.333557
-24.332275
-32.006607
-40.107819
-48.251549
-56.064278
-63.292282
-69.889610
-76.013687
-82.011398
-88.344475
-95.350792
-103.046364
-110.878700
-117.629204
-121.536606
-120.706207
-113.620483
-99.576981
-79.033730
-53.516945
-25.319145
2.981110
29.044243
51.189095
68.481819
80.738152
88.305580
91.865150
92.197685
90.112305
86.339691
81.450912
75.879448
69.880402
63.696571
57.557587
51.806648
46.810333
42.889145
40.227539
38.820236
38.462013
38.807083
39.402473
39.767677
39.465759
38.102715
35.478394
31.607132
26.767876
21.396080
15.886932
10.450027
5.022095
-0.653084
-6.907013
-13.881622
-21.507759
-29.504730
-37.473221
-45.048500
-52.018707
-58.384842
-64.431847
-70.586189
-77.338074
-84.929291
-93.119392
-100.937843
-106.766418
-108.653809
-104.873985
-94.481934
-77.637993
-55.639954
-30.613564
-4.976341
19.163696
40.242760
57.374290
70.204720
78.709717
83.129578
83.843750
81.419319
76.511597
69.904778
62.272430
54.237305
46.247940
38.776955
32.276962
27.229797
23.935722
22.439705
22.430733
23.317596
24.458099
25.307648
25.509689
24.900803
23.400803
20.958237
17.542953
13.181770
7.945145
1.996132
-4.512352
-11.436508
-18.596748
-25.771851
-32.706139
-39.211044
-45.319351
-51.404892
-58.090004
-66.026115
-75.542412
-86.334686
-97.306923
-106.709648
-112.489578
-112.713112
-106.104767
-92.333229
-72.186287
-47.405441
-20.269623
6.813950
31.742264
53.019798
69.743813
81.636391
88.829819
91.764961
91.119827
87.758644
82.511986
76.121216
69.062759
61.621674
54.060623
46.743385
40.190475
34.945030
31.339188
29.282349
28.362534
27.954971
27.524803
26.756851
25.519165
23.785439
21.493828
18.531952
14.778526
10.198608
4.846474
-1.209534
-7.925667
-15.352898
-23.537712
-32.374550
-41.612144
-50.811607
-59.509521
-67.419319
-74.593811
-81.376228
-88.331848
-95.863525
-103.878265
-111.576645
-117.403152
-119.347107
-115.584152
-104.944748
-87.365295
-63.971115
-36.803543
-8.337173
18.976700
43.231277
63.232010
78.429016
88.848267
94.872559
97.082336
96.211166
93.074493
88.431610
82.946365
77.079056
71.036377
64.971130
59.044617
53.575195
48.968460
45.623642
43.644302
42.864578
42.889038
43.207977
43.437439
43.290924
42.489334
40.770386
37.871323
33.650772
28.222397
21.989243
15.468811
9.156433
3.256836
-2.400421
-8.150909
-14.405838
-21.354126
-28.887024
-36.677269
-44.281410
-51.305069
-57.517540
-63.012566
-68.090118
-73.336197
-79.426048
-86.945786
-96.090446
-106.469841
-116.910461
-125.551430
-130.213470
-128.823212
-120.013741
-103.504745
-80.288567
-52.425751
-22.617752
6.389824
32.332253
53.776047
70.198067
81.731995
88.922188
92.414963
92.822144
90.760483
86.851036
81.726326
75.985268
70.059555
64.204071
58.530777
53.267624
48.757317
45.436516
43.642677
43.410835
44.368561
45.884285
47.201912
47.784546
47.393814
45.998749
43.712234
40.600227
36.710770
32.102646
26.922821
21.282722
15.300804
8.983444
2.227791
-5.038628
-12.745331
-20.661140
-28.448296
-35.773453
-42.497665
-48.656662
-54.396942
-59.886749
-65.265083
-70.641197
-76.234787
-82.359032
-89.352333
-97.324326
-105.838814
-113.811432
-119.478165
-120.771675
-115.925323
-104.017914
-85.359093
-61.384827
-34.299744
-6.449043
19.970253
43.255241
62.210693
76.138283
84.837158
88.592293
88.171120
84.624985
79.039421
72.270103
64.873680
57.230545
49.682610
42.673553
36.609055
31.869354
28.596985
26.779129
26.221550
26.737762
28.010780
29.558685
30.818459
31.053101
29.765503
26.778999
22.358849
17.083099
11.606483
6.395424
1.526932
-3.124641
-7.843239
-12.764992
-17.877899
-23.067886
-28.188957
-33.250618
-38.475761
-44.235565
-50.882187
-58.728157
-67.786011
-77.676041
-87.570114
-96.113335
-101.616875
-102.342339
-96.934860
-84.827721
-66.616951
-43.898094
-18.901688
5.915497
28.519768
47.476387
62.046295
72.109039
78.043457
80.435226
79.938667
77.186325
72.696899
66.932816
60.293457
53.171551
46.036716
39.355244
33.559582
28.973534
25.781097
23.945694
23.351429
23.680206
24.496666
25.300953
25.656925
25.265469
23.992584
21.869370
18.878834
15.006130
10.141518
4.103489
-3.168476
-11.548683
-20.741570
-30.248199
-39.513885
-48.142815
-55.960289
-63.090237
-69.968979
-77.183884
-85.272285
-94.361084
-103.940445
-112.725739
-118.849365
-120.296379
-115.502563
-103.854370
-85.785583
-62.776516
-36.791153
-9.924202
16.022141
39.610336
59.781597
75.845024
87.390419
94.481773
97.480995
97.083771
94.113205
89.376526
83.466034
76.829132
69.841980
62.843941
56.273834
50.555729
46.025196
42.846577
40.960262
40.071789
39.773979
39.709332
39.531723
38.988186
37.836063
35.899826
33.039345
29.241550
24.618813
19.350712
13.717434
7.890362
1.960983
-4.167831
-10.717409
-17.949606
-25.977791
-34.696808
-43.812695
-52.829601
-61.275665
-68.796577
-75.346085
-81.179504
-86.810333
-92.855827
-99.828964
-107.874092
-116.573326
-124.792252
-130.663177
-132.022598
-126.935715
-114.361160
-94.561707
-69.078804
-40.361778
-11.080988
16.361633
40.338188
59.896755
74.805298
85.213524
91.540268
94.430679
94.555412
92.632095
89.161484
84.554817
79.068481
72.970383
66.651245
60.557846
55.247375
51.089298
48.241596
46.570053
45.800026
45.576130
45.587936
45.576954
45.263672
44.355362
42.516632
39.552940
35.479042
30.579618
25.230797
19.787998
14.392529
8.924313
3.181538
-3.050919
-9.719356
-16.610432
-23.387737
-29.819880
-35.902412
-41.773396
-47.681175
-53.708004
-59.767445
-65.659821
-71.249886
-76.697952
-82.478645
-89.197205
-97.216232
-106.226746
-115.029388
-121.695709
-124.052460
-120.263031
-109.445786
-91.842186
-68.811592
-42.445412
-15.123088
10.916318
33.933594
52.806927
67.044563
76.675018
82.106766
83.984444
83.122696
80.342941
76.419769
71.959175
67.331306
62.693432
58.061810
53.470039
49.106720
45.236610
42.179245
40.119080
38.987022
38.540340
38.346268
37.945896
36.925533
35.048256
32.220486
28.566090
24.331186
19.800348
15.186531
10.524895
5.709826
0.514952
-5.188751
-11.437016
-18.136118
-25.057968
-32.032589
-38.939388
-45.713913
-52.361980
-58.930450
-65.558098
-72.483871
-79.900726
-87.676071
-95.187889
-101.186981
-104.000778
-101.944046
-93.831894
-79.417854
-59.522243
-35.837120
-10.512153
14.296485
36.772312
55.613235
70.107475
80.061096
85.649803
87.390671
85.939415
82.061020
76.484772
69.874443
62.752850
55.500271
48.405521
41.756832
35.818146
30.916531
27.278664
24.975124
23.783861
23.242790
22.765354
21.822184
20.217180
17.953707
15.224354
12.152990
8.686886
4.609079
-0.369287
-6.410454
-13.521851
-21.416473
-29.601418
-37.582993
-44.944740
-51.533455
-57.522560
-63.379318
-69.760239
-77.259979
-86.021996
-95.492584
-104.330154
-110.582230
-112.220207
-107.602493
-96.025330
-77.874863
-54.604324
-28.346552
-1.499020
23.814034
46.065205
64.319038
78.227921
87.785973
93.202980
94.821167
93.140739
88.828094
82.672890
75.498474
67.953918
60.452694
53.250771
46.482483
40.388901
35.326569
31.591227
29.296530
28.228281
27.903614
27.749914
27.305752
26.295668
24.684330
22.485229
19.639923
16.025757
11.563087
6.380928
0.807194
-4.718327
-9.933861
-14.869873
-19.847836
-25.344997
-31.710552
-38.919125
-46.613380
-54.277187
-61.561474
-68.533241
-75.663742
-83.584969
-92.743362
-102.903870
-113.002655
-121.278305
-125.660065
-124.315788
-116.168068
-101.167908
-80.219772
-54.972408
-27.450253
0.249893
26.145199
48.586952
66.444588
79.244492
87.101852
90.738098
91.108925
89.204056
85.756454
81.184738
75.703400
69.478638
62.826813
56.204216
50.180828
45.256023
41.755241
39.666340
38.735760
38.617893
38.943722
39.391575
39.687462
39.585548
38.824265
37.168716
34.468952
30.702499
25.973118
20.453175
14.357105
7.902542
1.311592
-5.270744
-11.780773
-18.251419
-24.848534
-31.740757
-38.952686
-46.291927
-53.362385
-59.740852
-65.165428
-69.762054
-74.012283
-78.607468
-84.244911
-91.280846
-99.458656
-107.842499
-114.854156
-118.565605
-117.212349
-109.571732
-95.330276
-75.222153
-50.824108
-24.245701
2.261822
26.706940
47.619499
64.095749
75.912064
83.389771
87.164413
87.988846
86.558212
83.463356
79.261261
74.462585
69.512802
64.708374
60.185207
55.933628
52.009411
48.609447
46.047085
44.595947
44.311123
44.814137
45.386570
45.219597
43.673813
40.504589
35.838558
30.048050
23.612240
16.947010
10.300747
3.741531
-2.857201
-9.650105
-16.751354
-24.149109
-31.664970
-39.031208
-45.974312
-52.307652
-58.018436
-63.332214
-68.596840
-74.310669
-80.925598
-88.686951
-97.376488
-106.184357
-113.652985
-117.901611
-117.069717
-109.817825
-95.788330
-75.630981
-50.981136
-24.088844
2.658924
27.147476
47.831985
63.856182
75.072601
81.724457
84.431549
83.922806
80.917313
76.088394
69.998825
63.095436
55.748264
48.358994
41.368950
35.298183
30.567829
27.442688
25.933647
25.743931
26.405968
27.379206
28.167389
28.257586
27.269743
24.894733
21.042471
15.928650
9.936247
3.512579
-2.988605
-9.457676
-16.020973
-22.786774
-29.788647
-36.947021
-44.069477
-51.135235
-58.261356
-65.750916
-73.935349
-82.934731
-92.417450
-101.407555
-108.353333
-111.342194
-108.598557
-98.979813
-82.381500
-59.855465
-33.346375
-5.292180
21.883711
46.185455
66.253197
81.391235
91.453575
96.779709
97.946365
95.696373
90.886711
84.350517
76.924759
69.339844
62.106644
55.466286
49.498405
44.165634
39.499008
35.670704
32.959724
31.528084
31.290728
31.880287
32.721397
33.161079
32.594997
30.582155
26.944057
21.803396
15.572729
8.825571
2.059746
-4.523464
-11.068243
-17.906744
-25.293991
-33.162888
-41.184910
-48.875938
-55.893013
-62.218025
-68.112808
-74.056183
-80.542282
-87.987015
-96.601334
-106.297379
-116.369537
-125.364716
-131.216370
-131.595535
-124.607246
-109.479477
-86.887184
-58.873817
-28.262253
2.138889
30.054321
54.137783
73.719009
88.557243
98.517059
103.543030
103.919785
100.421143
94.382462
87.359642
80.703232
75.093292
70.495216
66.398521
62.240955
57.836525
53.420197
49.530605
46.682663
45.098980
44.569702
44.574680
44.483353
43.751900
42.038734
39.198025
35.319214
30.517925
24.980148
18.850018
12.294960
5.588238
-0.993145
-7.138744
-12.789211
-18.156185
-23.704994
-29.977779
-37.263809
-45.443306
-53.967255
-62.161633
-69.471573
-75.842651
-81.690125
-87.763092
-94.813805
-103.209419
-112.674088
-122.111473
-129.675705
-133.067291
-130.165009
-119.583557
-101.192116
-76.220657
-46.910995
-16.021255
13.871433
40.691540
63.120403
80.498138
92.741699
100.148750
103.320015
103.056183
100.250122
95.773277
90.358017
84.545761
78.626984
72.661850
66.684937
60.788696
55.357723
50.990093
48.233406
47.330566
47.996059
49.453121
50.709454
50.984940
49.892593
47.507576
44.106117
39.918983
35.023865
29.349907
22.895889
15.777073
8.396553
1.211922
-5.343910
-11.109104
-16.181263
-20.919010
-25.777218
-31.106655
-37.043720
-43.378906
-49.817169
-56.054974
-61.997925
-67.810181
-73.808548
-80.422882
-87.980614
-96.607262
-106.041077
-115.499504
-123.582588
-128.390228
-127.880524
-120.413391
-105.389969
-83.490913
-56.610516
-27.389854
1.493008
27.798607
50.052151
67.464172
79.808990
87.215027
90.130310
89.269722
85.564423
80.032852
73.543221
66.693069
59.744892
52.797195
45.977917
39.557190
33.991768
29.769188
27.237015
26.406898
26.948399
28.214535
29.436588
29.955837
29.464912
27.949238
25.660213
22.947807
20.004280
16.883736
13.462746
9.465862
4.658043
-1.102558
-7.750271
-15.046806
-22.601593
-30.032532
-37.098782
-43.824913
-50.483589
-57.537971
-65.424103
-74.386673
-84.238052
-94.269928
-103.196747
-109.240761
-110.514740
-105.432587
-93.246712
-74.367401
-50.349472
-23.444729
3.898087
29.536556
51.914825
70.062195
83.434235
91.858917
95.456848
94.662674
90.303642
83.382202
74.992691
66.055939
57.265724
49.022568
41.624374
35.331284
30.413860
27.129848
25.546597
25.511013
26.578876
28.085411
29.399235
30.002655
29.584564
28.079823
25.495174
21.843403
17.123867
11.340054
4.501919
-3.259720
-11.767590
-20.821445
-30.187263
-39.603848
-48.832031
-57.625774
-65.802383
-73.407959
-80.708084
-88.214371
-96.422264
-105.643387
-115.533943
-124.950264
-131.913773
-134.005432
-129.116547
-116.056038
-95.117188
-67.946854
-37.114731
-5.394501
24.843147
51.878639
74.576714
92.235046
104.503738
111.376968
113.300301
111.137939
106.041893
99.175636
91.509605
83.722054
76.155487
68.995491
62.363739
56.318169
50.999855
46.575882
43.212395
40.903542
39.513390
38.607254
37.629204
36.009979
33.348938
29.552086
24.790771
19.374336
13.621544
7.767334
1.846626
-4.245079
-10.725945
-17.850525
-25.787109
-34.587349
-44.047401
-53.719101
-62.949821
-71.185028
-78.132881
-83.979523
-89.377960
-95.261375
-102.470146
-111.360855
-121.381821
-131.054489
-138.172577
-140.305725
-135.441528
-122.475471
-101.515755
-73.968590
-42.156738
-8.923630
22.936050
51.154182
74.268333
91.656204
103.436157
110.250175
112.895988
112.251190
109.044273
103.843056
97.193924
89.586418
81.502609
73.446716
65.950157
59.422432
54.231476
50.472656
48.022301
46.632004
46.030746
45.967293
46.250031
46.638329
46.764053
46.263870
44.690620
41.721016
37.276787
31.455154
24.562706
16.965103
9.028854
0.981598
-6.984337
-14.879501
-22.831535
-30.968346
-39.440704
-48.145752
-56.833031
-65.158653
-72.909843
-80.131264
-87.193184
-94.738426
-103.347908
-113.319130
-124.158112
-134.553833
-142.434326
-145.377121
-141.256805
-128.906662
-108.484161
-81.465683
-50.328018
-17.838142
13.421555
41.434616
64.872101
82.963860
95.493698
102.610321
104.912407
103.290688
98.821701
92.535713
85.237625
77.535706
69.779846
62.237946
55.176796
48.893692
43.677246
39.762138
37.324539
36.297974
36.454750
37.283730
38.097290
38.201157
37.074280
34.541695
30.836288
26.423279
21.711906
16.853363
11.626945
5.633171
-1.472076
-9.700653
-18.675110
-27.710075
-36.138184
-43.548073
-50.011002
-55.977592
-62.155670
-69.215874
-77.615051
-87.363510
-97.901337
-108.053650
-116.057022
-119.811615
-117.328590
-107.346001
-89.679955
-65.470200
-36.884995
-6.584801
22.866180
49.414742
71.740036
89.082886
101.167160
108.055824
110.084702
107.905998
102.396553
94.615417
85.531540
76.051590
66.801498
58.250938
50.652687
44.201859
39.065628
35.389801
33.269424
32.645706
33.210960
34.423729
35.565208
35.855537
34.695297
31.831596
27.414474
21.936523
16.014671
10.182182
4.679317
-0.602749
-6.027641
-12.044094
-19.008812
-27.026691
-35.879669
-45.233620
-54.620453
-63.617889
-71.993927
-79.715668
-87.101105
-94.718552
-103.262123
-113.084808
-123.763657
-133.828400
-140.887054
-142.255768
-135.757111
-120.474113
-97.079010
-67.657639
-35.016029
-2.120720
28.492085
54.976276
76.171768
91.617416
101.429550
106.145065
106.562256
103.645859
98.269234
91.269325
83.354187
75.136642
67.134056
59.671234
52.931618
46.997429
41.978973
38.031971
35.333199
33.972340
33.824200
34.519100
35.499947
36.187473
36.103931
34.940292
32.532722
28.884832
24.147831
18.523443
12.369398
6.056303
-0.141476
-6.201406
-12.293545
-18.801615
-26.033648
-34.006355
-42.510658
-51.064835
-59.286934
-67.090836
-74.733978
-82.631783
-91.113312
-100.238823
-109.669716
-118.624420
-125.912598
-130.006592
-129.256317
-122.163940
-107.900398
-86.661324
-59.808601
-29.665331
1.027443
29.766819
54.691589
74.735939
89.598648
99.375000
104.472321
105.492317
103.195091
98.294327
91.462593
83.236755
74.079208
64.604263
55.539719
47.677284
41.722515
37.979370
36.255810
35.996193
36.505207
37.202820
37.750195
37.998104
37.779358
36.863815
34.934975
31.701809
27.145439
21.521103
15.278240
8.878491
2.625621
-3.463033
-9.559177
-15.903898
-22.588068
-29.456608
-36.194527
-42.483604
-48.151409
-53.269249
-58.107170
-62.943596
-68.071907
-73.799835
-80.403114
-88.065414
-96.621475
-105.282150
-112.496162
-116.110703
-113.952179
-104.513969
-87.593826
-64.393051
-37.254395
-9.078224
17.501259
40.607609
59.253201
73.201614
82.643242
87.915802
89.365456
87.391945
82.506104
75.411545
66.906372
57.710232
48.424385
39.461727
31.181400
23.997238
18.325954
14.577576
12.943687
13.266449
15.011055
17.396034
19.573700
20.794075
20.622715
18.932201
15.921688
11.971054
7.446938
2.530899
-2.807079
-8.756069
-15.530598
-23.074028
-31.022526
-38.894760
-46.280602
-53.041557
-59.471760
-66.077477
-73.294846
-81.134842
-88.947304
-95.376862
-98.654861
-97.038948
-89.315338
-75.207626
-55.480827
-31.752590
-6.118942
19.258591
42.526600
62.299770
77.673454
88.241447
94.038452
95.535782
93.530090
88.907715
82.531471
75.087234
67.102638
58.997276
51.123711
43.768478
37.227036
31.752396
27.538185
24.731316
23.362785
23.199383
23.801308
24.449944
24.404282
23.120010
20.439198
16.516148
11.722988
6.397621
0.649548
-5.573238
-12.463795
-20.173256
-28.632408
-37.544899
-46.438370
-54.801064
-62.254951
-68.676590
-74.231186
-79.425095
-84.968712
-91.515854
-99.352737
-108.211906
-116.890167
-123.430984
-125.490898
-120.901253
-108.479919
-88.414757
-62.234428
-32.404488
-1.695183
27.425098
53.092625
74.079651
89.787476
100.072861
105.245979
105.988602
103.239868
98.004379
91.250496
83.718597
75.976974
68.398422
61.207066
54.535957
48.461422
43.142181
38.814819
35.778572
34.193790
33.951614
34.634644
35.460533
35.591003
34.355576
31.474655
27.069862
21.603500
15.606964
9.543159
3.705490
-1.990837
-7.856499
-14.269447
-21.484840
-29.446655
-37.760414
-45.876671
-53.277489
-59.686378
-65.311104
-70.590096
-76.011353
-81.945877
-88.664253
-96.256538
-104.419868
-112.263741
-118.237259
-120.647636
-117.865501
-108.698761
-92.821571
-71.036217
-45.164978
-17.476143
9.814171
34.876167
55.833527
71.337479
80.795563
84.340584
82.550171
76.293762
66.778458
55.416771
43.635014
31.853535
20.028854
8.039158
-4.034782
-16.106113
-27.915115
-38.914272
-48.618233
-53.024387
-50.140984
-41.446335
-30.829062
-21.262857
-13.644220
-7.165466
-0.589354
6.680669
14.489545
21.496189
26.400036
28.747120
28.948502
27.078642
22.983406
16.876005
9.858164
4.753178
5.055831
13.979248
32.742905
59.061890
86.811546
108.423050
118.089226
113.234932
95.307175
67.989952
35.761730
1.424757
-29.960991
-55.698185
-74.997795
-86.504532
-89.645355
-84.847435
-74.346588
-61.044815
-47.294624
-34.641579
-23.959759
-14.765594
-4.800807
7.511471
23.659164
42.156548
60.560200
76.961220
89.817429
98.073334
101.887863
106.587349
112.616455
119.783005
127.420395
134.829529
141.790756
147.689102
151.978500
149.685867
139.999146
122.830956
98.683167
68.231049
30.298027
-9.892979
-45.586678
-73.413940
-93.972382
-108.625694
-118.992126
-126.094925
-130.282944
-131.521530
-129.417084
-124.842720
-119.542099
-115.171036
-112.367935
-111.512581
-113.042259
-116.598572
-120.686806
-122.526421
-119.792068
-111.141159
-96.490761
-79.299683
-60.242813
-41.848175
-26.506462
-15.518288
-8.635178
-5.351395
-4.818802
-6.129768
-8.290764
-10.258850
-11.795700
-12.634651
-12.758255
-12.189491
-11.612999
-11.531193
-12.115246
-13.289356
-14.705906
-16.457668
-18.596886
-21.355667
-23.020424
-23.052551
-21.013973
-16.633482
-9.908297
-0.783503
10.655582
24.776917
41.969200
61.976837
82.084724
99.395927
112.843216
123.356308
132.672348
141.597290
150.215469
157.545059
162.800476
165.190109
164.797195
162.675812
160.403336
159.725464
161.346527
167.480957
175.831940
184.436890
191.294800
194.878952
194.115326
188.349380
177.501831
161.456604
140.926727
117.018166
91.638519
66.289192
41.548843
16.628815
-11.105911
-40.617737
-71.831055
-104.209717
-136.895615
-168.195114
-196.343964
-219.813263
-237.497574
-248.937607
-254.355728
-255.298798
-253.606155
-251.260071
-249.526108
-248.825974
-248.823547
-248.593613
-247.098373
-243.537857
-238.066483
-231.192932
-223.685654
-216.032135
-208.475800
-200.963974
-193.283859
-185.294937
-177.028564
-168.990173
-161.743790
-155.726944
-151.093445
-147.723587
-145.217789
-142.893784
-139.740082
-134.442017
-125.717636
-112.491943
-94.234840
-71.213799
-44.510406
-15.789591
13.104361
40.496326
65.078491
86.011589
102.922424
115.883690
125.249382
131.560150
135.390228
137.331985
137.816940
137.215378
135.725235
133.486862
130.663406
127.472839
124.291016
121.520172
119.543884
118.488068
118.183441
118.183807
117.978119
117.236969
115.922302
114.265228
112.532043
110.777985
108.754364
106.001190
102.099976
96.778748
90.082672
82.233002
73.480164
64.005432
53.932861
43.329285
32.238892
20.658722
8.422638
-4.639893
-18.610260
-33.182159
-47.539368
-60.304291
-69.730591
-74.127075
-72.315430
-64.148071
-50.554260
-33.410797
-14.974823
2.711761
18.229858
30.914429
40.619507
47.413910
51.428345
52.920380
52.272125
50.216339
47.638245
45.228638
43.305389
41.748199
40.185364
38.262268
35.874268
33.200623
30.720886
29.054993
28.764771
30.142639
33.096741
37.077942
41.169556
44.433655
46.182495
46.212708
44.745056
42.192261
38.915100
35.028687
30.530945
25.407166
19.836243
14.198425
8.937317
4.328735
0.381958
-3.115601
-6.686035
-10.827698
-15.952209
-22.209045
-29.458435
-37.269043
-44.916992
-51.470398
-55.750610
-56.645569
-53.213379
-45.076904
-32.523682
-16.697510
0.757446
18.040222
33.577698
46.409424
56.077820
62.706421
66.638062
68.299255
68.020508
66.115601
62.875366
58.637054
53.799438
48.689392
43.543793
38.501190
33.611481
28.964630
24.805573
21.450256
19.226715
18.312744
18.523285
19.358215
20.215820
20.570129
20.221710
19.288727
17.980560
16.428558
14.609894
12.334656
9.452301
6.006622
2.152069
-1.786835
-5.630157
-9.370056
-13.218597
-17.448181
-22.304718
-27.848663
-33.840790
-39.823700
-45.100891
-48.888489
-50.521118
-49.492432
-45.598419
-38.972198
-30.039337
-19.438751
-8.089966
3.050873
13.160400
21.614990
28.147034
32.720184
35.355377
36.090607
34.977112
32.266235
28.404510
24.116669
20.082855
16.800232
14.397522
12.780029
11.764496
11.194092
10.971680
10.962494
10.939148
10.594757
9.696869
8.201843
6.246979
4.098602
2.010986
0.153168
-1.485138
-3.062012
-4.888184
-7.221512
-10.185989
-13.628159
-17.116592
-20.172440
-22.488708
-24.128784
-25.508041
-27.203812
-29.603226
-32.671310
-36.049988
-39.169540
-41.499008
-42.573334
-41.988724
-39.376358
-34.459335
-27.219543
-18.009155
-7.521667
3.301971
13.598541
22.763199
30.489105
36.744919
41.565338
44.911179
46.710175
46.922058
45.667007
43.206192
39.982849
36.418579
32.828049
29.400299
26.120155
22.924706
19.800201
16.846878
14.270805
12.305962
11.115974
10.632553
10.608765
10.560699
10.014256
8.662239
6.447670
3.631439
0.569302
-2.448753
-5.370567
-8.300316
-11.416733
-14.730593
-18.130444
-21.411446
-24.372265
-27.060184
-29.675480
-32.537464
-35.848488
-39.699959
-44.000771
-48.486107
-52.880730
-56.762520
-59.646828
-60.966816
-60.184082
-56.953358
-51.233471
-43.338497
-33.821926
-23.471577
-13.095203
-3.521179
4.642670
11.042534
15.629593
18.604729
20.248550
20.889709
20.727928
19.886925
18.468674
16.598114
14.485085
12.244980
10.004341
7.829872
5.858063
4.251411
3.198601
2.801407
2.934555
3.389557
3.910034
4.341629
4.646774
4.879379
4.984467
4.881973
4.359177
3.237915
1.465179
-0.861938
-3.472763
-6.088043
-8.473297
-10.599609
-12.515945
-14.365646
-16.296921
-18.298004
-20.281815
-22.100418
-23.649933
-25.035034
-26.520309
-28.439240
-30.987549
-34.212845
-37.818695
-41.405975
-44.514984
-46.695114
-47.588669
-46.883942
-44.332367
-39.904129
-33.739899
-26.192307
-17.819977
-9.300751
-1.265823
5.734497
11.331970
15.422226
18.074280
19.493698
19.825500
18.948349
16.658585
12.899506
7.980713
2.734375
-1.761490
-4.643051
-5.670990
-5.327438
-4.524002
-4.161926
-4.646759
-5.925980
-7.601288
-9.295486
-10.895157
-12.490173
-14.161438
-15.839645
-17.210495
-17.875977
-17.653748
-16.699127
-15.468948
-14.625885
-14.675705
-15.715378
-17.527954
-19.621414
-21.631226
-23.487000
-25.427948
-27.873154
-31.105728
-35.106445
-39.462387
-43.561249
-46.707306
-48.343201
-48.005173
-45.388763
-40.301132
-32.767044
-23.137955
-12.156219
-0.861481
9.608948
18.330032
24.753799
28.824265
30.895401
31.439117
30.943665
29.742859
28.002701
25.865234
23.448868
20.930038
18.595642
16.680649
15.282089
14.390045
13.870132
13.619629
13.601608
13.861313
14.439621
15.257744
16.070335
16.461090
15.977203
14.335518
11.445801
7.548561
3.008728
-1.722595
-6.305733
-10.526649
-14.363876
-17.831879
-21.021576
-24.029961
-26.978050
-30.007713
-33.296577
-36.963753
-41.038765
-45.416634
-49.846077
-54.050194
-57.771080
-60.831192
-63.046398
-64.078438
-63.368145
-60.177273
-53.931332
-44.432350
-32.049572
-17.717865
-2.783936
11.330572
23.452644
33.027626
40.126167
45.207806
48.944149
51.846481
54.061176
55.355362
55.261299
53.455322
50.280739
46.599300
43.299400
41.047012
40.142502
40.598183
42.227161
44.505020
46.460510
47.074886
44.996082
38.770519
27.630703
12.464638
-4.151154
-18.752941
-28.414967
-31.915333
-29.367367
-22.459351
-13.961319
-6.577454
-1.820553
0.273331
0.536690
-0.016449
-0.652985
0.018867
3.169510
9.285118
18.073479
28.957970
41.317413
54.597954
68.404160
76.575340
75.502380
66.811424
56.317024
48.810501
45.448204
44.786789
44.831177
44.080070
41.818817
38.887146
36.231598
34.062286
31.861969
29.086792
25.589947
21.598061
17.298317
12.880093
9.207119
7.204803
7.049164
8.263695
10.167953
12.223373
14.160738
15.834505
17.126722
18.832588
20.808355
22.454586
22.852142
21.176125
17.044533
10.719866
2.868086
-5.535491
-13.389710
-19.792397
-24.553295
-27.668560
-29.149502
-28.981510
-27.231064
-24.236557
-20.709499
-17.494061
-15.158703
-14.094944
-14.012127
-14.188881
-13.976578
-13.215576
-12.331829
-12.303940
-14.651329
-17.969208
-22.414619
-28.122765
-35.179092
-43.463135
-52.544579
-61.497887
-68.873131
-72.977951
-72.156929
-65.753738
-53.799911
-37.222763
-17.864166
2.087570
20.482941
35.900688
47.765030
56.382301
62.021240
65.068291
65.685020
63.854424
59.688354
53.617561
46.413177
38.901367
31.813873
25.314819
19.411163
14.177933
9.809357
6.639389
4.980850
4.904190
6.176025
8.328430
10.522430
12.012375
12.290817
11.192276
8.902832
5.831650
2.401199
-1.158142
-4.889023
-9.111984
-14.065247
-19.761002
-25.983826
-32.361359
-38.550400
-44.356613
-49.842606
-55.402832
-61.548416
-68.725800
-77.099319
-86.351929
-95.567062
-103.332443
-108.022949
-108.050583
-102.248764
-90.179672
-72.303101
-50.076813
-25.731613
-1.702209
19.843002
37.588257
51.163391
60.987503
67.586716
71.282639
72.068939
69.816086
64.755173
57.456131
48.914932
40.087112
31.744537
24.298889
17.931198
12.725342
8.783646
6.237839
5.049286
5.061920
5.873703
6.943985
7.664276
7.487534
5.996353
2.962067
-1.663284
-7.737549
-14.946243
-22.938980
-31.311554
-39.682083
-47.715622
-55.274521
-62.467758
-69.578308
-77.120560
-85.595627
-95.191040
-105.536209
-115.511292
-123.347168
-126.912598
-124.338699
-114.497559
-97.382553
-74.135880
-46.822769
-17.966202
9.873566
34.573349
54.683578
69.464203
78.930008
83.598846
84.400009
82.295837
78.201797
72.750336
66.384644
59.431427
52.158600
44.983231
38.391815
33.001999
29.304581
27.500687
27.436996
28.640198
30.353615
31.910667
32.741508
32.453598
30.819237
27.677307
22.902077
16.373169
8.084259
-1.845657
-12.993576
-24.655624
-36.118500
-46.681618
-56.034538
-64.290169
-71.985901
-79.839920
-88.512550
-98.481613
-109.831940
-122.281868
-134.904968
-146.157516
-153.924210
-155.822144
-149.817627
-134.803986
-111.116417
-80.440414
-45.596523
-9.725798
24.160492
53.775078
77.796585
95.848305
108.336037
116.062103
119.992622
120.911430
119.482956
116.205536
111.463318
105.661903
99.226944
92.564514
85.940674
79.748474
74.404388
70.328865
67.793076
66.761681
66.830490
67.348724
67.553009
66.584923
63.876144
59.188744
52.702827
44.931145
36.438629
27.722481
19.127075
10.659798
1.903091
-7.456879
-17.500435
-28.105202
-38.911316
-49.644707
-60.116371
-69.638084
-78.017952
-85.724533
-93.646942
-102.669182
-113.466316
-126.001945
-139.425995
-151.854584
-159.156158
-157.677399
-145.383087
-121.974182
-88.528496
-47.503853
-2.340790
42.779938
83.811905
119.655869
149.547729
172.660202
188.912933
199.636398
206.766541
212.011139
215.683685
