1426078122.000000
64.000000
0.000000
0.000000
0.000000
0.000000
0.000000
0.000000
0.000000
0.000000
0.000000
0.002232
-0.004517
-0.011266
-0.011384
0.001186
0.025910
0.050634
0.051363
-0.001493
-0.130243
-0.355628
-0.659125
-1.009510
-1.370983
-1.719736
-2.055110
-2.399450
-2.786664
-3.239907
-3.796012
-4.418684
-5.059294
-5.664410
-6.202154
-6.680880
-7.149598
-7.678234
-8.310739
-9.143657
-10.089731
-11.041313
-11.884212
-12.564316
-13.135630
-13.760044
-14.652320
-15.962056
-17.914442
-20.317299
-22.903854
-25.379471
-27.578028
-29.572460
-31.675173
-34.317799
-37.813618
-42.541233
-48.146301
-54.104755
-59.833092
-64.972374
-69.582932
-74.143532
-79.344986
-85.707260
-93.761932
-102.997787
-112.617569
-121.730339
-129.766022
-136.751022
-143.303436
-150.746231
-157.773560
-166.643234
-177.947983
-191.791016
-206.968079
-220.565918
-228.246445
-225.361542
-208.531982
-176.870239
-132.762222
-80.049973
-23.069275
34.943390
92.436951
149.156952
205.227722
260.369629
313.741333
363.873962
409.833527
450.907745
486.502441
515.738647
537.227417
549.219971
549.961304
538.367004
514.205505
478.674011
433.879517
382.451263
327.021057
269.841858
212.633789
156.659607
102.952911
52.374756
5.906677
-35.577515
-71.422241
-101.348328
-125.499359
-144.382385
-158.705322
-169.176285
-176.418137
-180.828537
-182.691132
-182.236176
-179.736008
-175.535782
-170.039459
-163.657761
-156.730118
-149.503159
-142.112442
-134.627090
-127.081177
-119.521378
-112.007607
-104.608383
-97.394119
-90.413986
-83.701042
-77.269226
-71.129158
-65.282249
-59.741707
-54.519245
-49.623814
-45.063583
-40.838654
-36.953342
-33.401588
-30.183973
-27.294991
-24.739641
-22.517025
-20.624969
-19.062035
-17.819256
-16.890200
-16.263897
-15.908581
-15.808846
-15.949278
-16.311506
-16.881102
-17.638592
-18.567055
-19.656830
-20.903084
-22.254934
-23.698200
-25.225180
-26.825209
-28.508797
-30.281815
-32.137260
-34.068497
-36.066971
-38.024055
-39.832775
-41.332169
-42.300037
-42.457413
-41.510475
-39.169960
-35.186527
-29.399860
-21.629684
-11.894768
-0.327568
12.816761
27.207043
42.436737
58.064659
73.640549
88.039993
101.033218
112.435898
122.065704
129.767868
135.366333
138.691467
139.551849
138.203461
134.710297
128.570053
119.486649
107.414970
92.565178
75.393196
56.556610
36.893520
16.874363
-2.241005
-19.460148
-34.102947
-45.810738
-54.499550
-60.318115
-63.587158
-64.792801
-64.388451
-62.808258
-60.491959
-57.772636
-54.866646
-51.928673
-49.020622
-46.180618
-43.406002
-40.705849
-38.036160
-35.458241
-32.977894
-30.606220
-28.345781
-26.185198
-24.115807
-22.121246
-20.207523
-18.350147
-16.595999
-14.950975
-13.404942
-11.947942
-10.556776
-9.222592
-7.954321
-6.758556
-5.651878
-4.659714
-3.791300
-3.030174
-2.337456
-1.702314
-1.104012
-0.544168
-0.038452
0.396379
0.745918
1.007736
1.219265
1.419029
1.641777
1.918877
2.218349
2.485699
2.657608
2.693384
2.611628
2.507133
2.516836
2.733065
3.199068
3.837429
4.474030
4.925495
5.088570
5.000109
4.855690
4.918644
5.418154
6.404736
7.728374
9.078976
10.119873
10.649693
10.725243
10.620117
10.777578
11.516548
12.954004
14.874249
16.845093
18.443081
19.393913
19.707218
19.632832
19.518799
19.696507
20.547783
22.500065
25.867405
30.367867
34.745544
36.834435
34.214878
25.448181
10.972843
-6.874367
-24.703854
-39.504745
-49.703339
-55.319710
-57.245586
-56.408707
-53.368889
-48.607296
-43.015938
-38.080776
-35.388107
-35.809246
-38.868996
-42.881824
-45.885662
-46.605209
-44.905899
-41.563847
-37.508724
-33.262295
-28.659328
-23.225357
-16.781757
-9.370655
-1.467541
6.356812
13.909744
21.336887
28.812012
36.109020
42.490635
46.864029
48.419472
47.089722
43.619015
39.029724
33.999866
28.465691
21.837952
13.573833
3.903244
-6.014683
-14.417114
-19.667732
-21.067341
-19.070953
-15.206913
-11.320717
-8.878918
-8.560156
-10.122627
-12.679123
-15.209776
-16.991968
-17.893555
-18.336098
-18.907112
-20.009577
-21.523251
-23.050507
-23.950209
-24.021355
-23.401182
-22.704002
-22.681463
-23.877472
-26.221390
-29.387415
-32.914017
-36.219109
-39.069458
-40.956097
-41.530884
-40.535118
-37.646744
-32.338699
-24.492146
-14.585054
-3.370777
7.881752
18.742233
28.516788
36.279411
41.456821
44.510456
46.950890
47.514912
46.341278
43.426594
39.889027
35.691769
29.832298
21.367378
10.732861
-0.464878
-10.165478
-15.985420
-16.221943
-8.044231
9.072971
33.009636
59.799549
85.344070
106.184372
120.022232
126.759041
116.697205
90.774368
59.993313
35.556011
20.616840
12.388882
6.808071
0.977821
-5.962086
-13.758743
-18.622711
-20.382122
-20.249046
-19.880985
-19.989223
-20.399307
-20.846912
-21.095615
-21.296024
-20.131687
-18.184853
-15.872700
-13.338381
-9.872120
-4.538277
2.874910
11.660059
20.360165
28.386961
34.908562
39.338409
41.314720
41.142414
39.737171
38.215233
37.766209
39.441624
44.273670
52.199928
62.238670
72.851906
82.745880
91.444305
99.181648
106.550018
113.870514
120.892509
126.339165
128.347885
124.984383
114.918625
98.002525
75.246613
48.630981
20.551849
-6.760277
-31.691628
-53.451767
-71.937088
-87.478851
-100.422333
-110.989655
-119.218674
-125.156921
-128.983200
-130.907562
-131.130005
-129.679184
-126.577652
-121.910477
-115.989838
-109.323654
-102.480148
-95.900909
-89.732498
-83.851120
-77.900650
-71.408554
-63.798203
-54.533310
-43.215790
-29.769974
-14.618195
1.388458
17.094955
31.454956
43.879150
54.324615
63.383972
71.925873
80.853363
90.764313
101.924011
114.103760
126.633423
138.336884
147.557281
152.321655
150.688812
141.283783
123.743896
98.890350
68.632446
35.457275
1.950806
-29.780029
-58.231232
-82.643982
-102.823334
-119.059357
-131.862305
-141.835968
-149.457947
-154.955383
-158.356140
-159.594421
-158.778687
-156.251801
-152.539886
-148.156342
-143.431274
-138.489227
-133.291290
-127.864227
-122.287384
-116.675262
-111.016663
-105.074554
-98.519592
-90.965637
-82.278168
-72.515289
-61.859436
-50.494080
-38.567047
-26.177399
-13.362427
-0.158630
13.509735
27.713837
42.521698
57.857880
73.570984
89.505066
105.599304
121.842499
137.977356
153.120880
165.511169
172.806488
172.738678
164.040375
147.046692
123.610947
96.458908
68.238007
40.835419
15.206848
-8.302002
-29.445084
-47.866882
-63.007919
-74.590744
-82.731247
-88.060776
-91.355331
-93.241226
-93.921173
-93.294678
-91.260101
-87.974152
-84.005600
-80.109924
-76.922745
-74.704819
-73.236847
-72.017212
-70.449600
-68.162140
-65.007156
-61.095840
-56.634079
-51.829208
-46.760330
-41.326660
-35.224838
-28.016846
-19.250786
-8.597275
4.040459
18.526184
34.534500
51.684212
69.644768
88.211357
107.315475
126.950706
147.163284
167.851227
188.529373
208.122314
224.775162
236.123505
239.750641
233.867325
217.984283
193.103317
161.532532
126.251930
90.296043
56.085171
25.162071
-1.881706
-25.158371
-45.213387
-62.662460
-77.959152
-91.268173
-102.380402
-110.868973
-116.264084
-118.335869
-117.311531
-113.911873
-109.297958
-104.712738
-101.220261
-99.285667
-98.755981
-98.890938
-98.675552
-97.192932
-93.787308
-88.187904
-80.329208
-70.345352
-58.551811
-45.576454
-32.347839
-19.924416
-9.197784
-0.470814
6.587055
12.793682
18.884647
25.165546
31.242516
36.324543
39.738499
41.255920
41.332294
40.844101
40.692146
41.464684
43.304142
46.038452
49.324947
53.008038
57.023972
61.553009
66.844276
73.168655
80.744942
89.596878
99.355515
109.008514
116.893196
120.895699
118.982491
109.865021
93.452972
71.037483
44.860344
17.498817
-8.866003
-32.750420
-53.452980
-70.773140
-84.768127
-95.580460
-103.335152
-108.214264
-110.378540
-109.994064
-107.246170
-102.394287
-95.883148
-88.304306
-80.388214
-72.830833
-66.260803
-61.105774
-57.609764
-55.794601
-55.424408
-56.050056
-57.032753
-57.716125
-57.579453
-56.423038
-54.345638
-51.623203
-48.581089
-45.386650
-42.120262
-38.649963
-34.882080
-30.758072
-26.304718
-21.635559
-16.858688
-12.033409
-7.162048
-2.259460
2.596359
7.307053
11.793823
16.069351
20.292900
24.717316
29.571869
35.049408
41.135864
47.747284
54.679001
61.673691
68.431305
74.660614
80.240417
85.357239
90.537994
96.471985
103.695389
112.137680
120.918320
128.442108
132.715256
131.927063
124.934052
111.573975
92.627518
69.657471
44.524841
19.101913
-5.012558
-26.649231
-45.068726
-59.967850
-71.395996
-79.693573
-85.372437
-88.996918
-91.055298
-91.737930
-91.086731
-89.016098
-85.586288
-81.066513
-76.020309
-71.124817
-67.053864
-64.205017
-62.643066
-62.128540
-62.212036
-62.405151
-62.326752
-61.725128
-60.527344
-58.682526
-56.255432
-53.299500
-49.969421
-46.493713
-43.144775
-40.152344
-37.548615
-35.178864
-32.658966
-29.570648
-25.637787
-20.856689
-15.541504
-10.154938
-5.133820
-0.681366
3.298035
7.187042
11.414734
16.308716
21.970581
28.301575
35.163177
42.492798
50.405823
59.011627
68.269958
77.842041
87.079926
95.260406
101.774231
106.438995
109.360626
110.863495
111.014343
109.443390
105.381836
98.023987
87.019226
72.832153
56.669556
40.104980
24.543823
10.811035
-0.898804
-10.677979
-18.558533
-24.160034
-26.932861
-26.354248
-22.249146
-14.752747
-4.039734
9.963745
27.668030
49.366455
74.680115
102.043396
128.732849
151.541748
167.691284
175.701660
175.595093
168.622498
156.422729
140.403381
121.400330
99.849915
76.145508
50.920471
25.064575
-0.546326
-25.377380
-49.461182
-73.182739
-96.862366
-120.256714
-142.345276
-161.481873
-175.765900
-183.828400
-185.245880
-180.780060
-172.022339
-160.823120
-148.580994
-135.839752
-122.351929
-107.398834
-90.382111
-71.206787
-50.357819
-28.696259
-7.007935
14.215729
34.987915
55.496674
75.863312
95.744324
114.301544
130.420227
143.128815
151.964294
157.069916
158.969482
158.072571
154.450836
147.434967
135.998169
119.396179
97.783966
72.438385
45.391083
18.902008
-5.223450
-25.777069
-42.507965
-55.849365
-66.439392
-74.770721
-81.003296
-85.126221
-87.057770
-86.840729
-84.379059
-80.025177
-74.616760
-68.844543
-63.051636
-57.194031
-51.163086
-44.997406
-39.039612
-32.837372
-26.524719
-20.776642
-15.988434
-11.707733
-7.068115
-1.452850
5.228699
12.574371
21.841980
33.136139
44.886902
55.583862
64.826996
73.032959
80.538971
87.373383
93.429749
101.822357
113.680176
127.016693
139.195343
149.026306
156.442688
161.615479
164.548645
165.127838
167.406616
172.296387
176.051788
174.034943
163.781921
145.024567
118.416626
85.017761
24.021637
-61.442505
-148.542236
-216.215927
-259.356171
-283.029663
-293.518799
-294.700439
-288.265503
-274.887787
-252.446381
-219.597595
-180.671341
-141.236481
-104.222168
-69.295868
-34.493881
2.792511
34.741714
61.047974
81.204224
92.395660
92.188599
81.191666
63.162216
42.952110
24.632324
10.420280
3.656334
4.061356
8.421677
13.634972
18.414536
23.125999
28.055756
32.810722
36.628021
40.626022
44.479034
47.001591
48.606926
48.312489
46.204296
42.213200
36.119171
28.162041
19.758183
10.944759
1.803320
-7.082680
-14.713936
-19.792551
-22.057247
-22.151226
-21.026609
-20.204693
-22.920689
-31.309292
-45.648647
-64.580078
-85.703690
-107.647057
-130.279800
-154.745850
-171.967102
-177.548874
-171.418976
-157.519104
-140.615295
-123.713882
-108.443642
-98.877640
-91.924103
-85.521294
-80.273293
-76.997665
-76.290604
-78.534645
-80.823624
-82.222244
-81.901657
-78.434341
-71.351135
-61.855988
-50.968903
-39.098053
-25.876507
-10.416519
7.630924
28.437775
52.206055
77.977173
103.777611
127.897598
149.256561
167.279068
181.702286
191.860291
197.454773
198.984009
197.200073
193.015289
187.707458
182.690353
178.909821
176.575272
174.673569
171.595886
165.586121
155.028549
139.030518
117.832321
92.806534
65.981331
39.532322
15.044216
-6.586163
-25.111996
-40.992985
-54.844437
-67.323578
-78.773224
-89.222977
-98.455345
-106.084198
-111.704521
-114.974869
-115.734230
-114.072601
-110.481064
-105.801910
-101.145279
-97.509438
-95.504791
-95.077797
-95.485062
-95.653763
-94.535881
-91.579407
-86.807510
-80.702820
-73.881790
-66.675888
-59.069839
-50.603268
-40.719830
-28.975300
-15.352943
-0.286476
15.516476
31.366699
46.948853
62.320847
77.844818
93.881233
110.487862
127.323029
143.577637
158.041260
169.173309
175.300171
174.878601
166.869537
151.022125
128.073181
99.565781
67.556183
34.192947
1.321457
-29.576744
-57.511955
-81.853073
-102.238213
-118.498161
-130.525467
-138.308105
-141.873184
-141.478149
-137.640167
-131.182220
-123.047127
-114.126732
-105.056747
-96.155678
-87.515244
-79.168449
-71.188927
-63.644676
-56.501381
-49.575172
-42.564247
-35.239426
-27.622032
-20.014221
-12.821808
-6.342560
-0.538239
4.905029
10.401962
16.413849
23.232300
31.155807
40.471008
51.456406
64.315094
79.064377
95.524796
113.452148
132.737839
153.313812
174.926208
196.688278
216.827972
232.834122
241.982239
242.215958
232.681198
214.065750
188.213867
157.528976
124.377380
90.630615
57.618362
26.231201
-2.952484
-29.668747
-54.005447
-76.453171
-97.634644
-117.992584
-137.384277
-154.916473
-169.253174
-179.159760
-184.193466
-185.076523
-183.670380
-182.374268
-183.394455
-188.035706
-196.410156
-207.630936
-220.205063
-232.643829
-243.935699
-253.735062
-262.204620
-269.404510
-274.838867
-277.034912
-273.876709
-263.349243
-244.377243
-217.369568
-184.042145
-146.892120
-108.426712
-70.785431
-35.486343
-3.455551
25.150360
50.964920
75.436340
100.507980
127.773682
157.779373
189.441727
220.405975
247.838196
269.553131
284.767792
294.196686
299.599854
302.746460
304.534546
304.460327
300.752228
291.045929
273.462524
247.424774
213.999146
175.605591
135.181976
95.428085
58.279938
24.849384
-4.372395
-29.245579
-49.776726
-66.217018
-79.016960
-88.841942
-96.410378
-102.250687
-106.610062
-109.392403
-110.418839
-109.659065
-107.508148
-104.792450
-102.614403
-101.924431
-103.173363
-106.135345
-109.994156
-113.706680
-116.377197
-117.574234
-117.329071
-116.001953
-113.994698
-111.538689
-108.665833
-105.125519
-100.533882
-94.355988
-86.131897
-75.628128
-63.100597
-49.327366
-35.380928
-22.299110
-10.636652
-0.234697
9.676916
20.125460
31.977091
45.553581
60.535675
76.079185
91.203835
105.174377
117.805847
129.571579
141.555023
155.027588
170.997559
189.610764
209.883835
229.547180
245.420410
254.101013
252.713623
239.759705
215.489746
181.915085
142.218170
100.020538
58.494461
19.867706
-14.805134
-45.402058
-72.346237
-96.168396
-117.152542
-135.281189
-150.245667
-161.667847
-169.320312
-173.138062
-173.450012
-170.757706
-165.868759
-159.747086
-153.426498
-147.848557
-143.565750
-140.588821
-138.343719
-135.975067
-132.615387
-127.768120
-121.438927
-114.005890
-106.043465
-98.010490
-90.108810
-82.237206
-74.103531
-65.373161
-55.707565
-44.783928
-32.301025
-18.145363
-2.442871
14.261780
31.141907
47.262955
61.988968
75.151443
87.002960
98.122604
108.929459
119.569839
129.857132
139.606033
148.885757
158.162094
168.149948
179.523788
192.500565
206.499741
220.082047
231.002457
236.626373
234.368576
222.350250
199.957809
168.036591
128.876846
85.687103
41.957062
0.760117
-35.710571
-66.212463
-90.402863
-108.497665
-121.138245
-129.170822
-133.608673
-135.431824
-135.424652
-134.102829
-131.727280
-128.468170
-124.547836
-120.430176
-116.696762
-113.806412
-111.997513
-111.115768
-110.719955
-110.211914
-108.998062
-106.659485
-102.981583
-97.918137
-91.600922
-84.285675
-76.307159
-67.974213
-59.501266
-50.875183
-41.886978
-32.233215
-21.765015
-10.664368
0.605347
11.496796
21.698883
31.321228
40.992615
51.393311
62.791656
75.032196
87.738586
100.500732
113.121765
125.642456
138.321503
151.843109
167.026459
184.566406
204.612762
226.313751
247.456024
264.563965
273.740662
271.750275
257.362122
231.322388
195.748077
153.668060
108.511444
63.531372
21.409454
-16.034668
-47.915527
-73.275818
-92.186951
-105.974609
-116.446442
-124.813568
-131.464905
-136.337173
-139.348282
-140.580688
-138.320236
-131.841461
-122.549698
-112.966919
-104.957397
-99.034561
-94.996292
-92.365387
-90.641846
-86.127060
-76.425110
-62.357361
-46.555298
-31.059982
-16.323944
-2.151123
11.851364
26.142639
45.566238
73.318298
108.145172
145.848541
182.514297
216.460907
247.364929
275.987854
277.271851
241.940674
184.813477
129.743164
89.340004
64.224365
51.594635
48.482819
52.345562
59.932587
71.841568
87.351036
102.726585
116.391891
124.771278
127.565559
125.389008
118.684814
106.840691
92.844299
79.165108
66.018753
52.153976
36.477295
18.845078
-1.929688
-23.307556
-44.410156
-62.865311
-77.316772
-88.378006
-97.630539
-106.327332
-114.364960
-121.513382
-127.744568
-134.118622
-140.653595
-147.448730
-155.146027
-164.758636
-177.318390
-193.328430
-212.987762
-235.914490
-261.406952
-287.550110
-312.053833
-333.096283
-349.540314
-360.955475
-367.037476
-367.568573
-362.206543
-350.905487
-333.646179
-310.637085
-282.413208
-249.941681
-214.427917
-177.123383
-139.064026
-100.808014
-62.634918
-24.572174
13.315369
50.655273
86.792389
120.977142
152.667755
181.618607
207.966949
231.897568
253.689072
273.626617
291.982422
308.829010
323.771698
335.771606
343.071167
343.497803
335.074707
316.599731
288.060089
250.702209
206.837173
159.370941
111.267548
65.050217
22.562195
-15.177872
-47.720230
-75.039909
-97.209129
-114.394257
-126.850479
-134.987854
-139.353729
-140.508179
-138.959595
-135.138809
-129.504211
-122.656082
-115.334366
-108.350479
-102.229874
-97.226532
-93.133186
-89.505798
-85.834976
-81.676407
-76.738930
-70.981880
-64.547981
-57.765999
-51.045517
-44.763069
-39.156960
-34.292679
-30.026886
-26.069031
-22.064896
-17.660748
-12.518738
-6.473461
0.630726
8.871498
18.321766
29.085377
41.297005
55.030880
70.343979
87.199753
105.653091
125.864502
148.013412
171.930817
196.699982
220.379639
240.184067
253.036835
256.380066
248.856445
230.663025
203.403931
169.697296
132.600235
94.985710
59.063046
26.231911
-3.071831
-29.077827
-52.283394
-73.099937
-91.612434
-107.512802
-120.410080
-130.086792
-136.604431
-140.331940
-141.810516
-141.613052
-140.276764
-138.256805
-136.021439
-133.899796
-132.146713
-130.726517
-129.428528
-127.695717
-124.758369
-119.846802
-112.464600
-102.602394
-90.812775
-77.957870
-64.918442
-52.261154
-40.191006
-28.610432
-17.358418
-6.228085
4.964962
16.443100
28.478405
41.265331
54.728352
68.562286
82.333389
95.789871
108.964996
122.383438
136.776550
152.796188
170.698456
189.882004
208.658661
224.396667
233.942520
234.591583
224.890167
205.159073
177.340775
144.369888
109.210556
74.276825
41.179573
10.899895
-16.002342
-39.175781
-58.576508
-74.329422
-86.803314
-96.427910
-103.670929
-108.914978
-112.584915
-115.090576
-116.803375
-117.986580
-118.842606
-119.440392
-119.918381
-120.351501
-120.750793
-120.945107
-120.584671
-119.189262
-116.399757
-112.091751
-106.451065
-99.851295
-92.683174
-85.131706
-77.195045
-68.665382
-59.325310
-49.100746
-38.028442
-26.271606
-13.974625
-1.170303
12.157852
25.975990
40.046303
54.034386
67.630898
80.835411
94.099396
108.241882
124.056404
141.890717
161.160156
180.353897
197.180115
209.126831
213.925781
210.077667
197.012527
175.195724
145.939072
111.207100
73.265419
34.358597
-3.638695
-39.265793
-71.571999
-99.941719
-123.970596
-143.426880
-158.285324
-168.852661
-175.757172
-179.845947
-181.954437
-182.592957
-181.987793
-180.157532
-177.197510
-173.572800
-170.193878
-168.142761
-168.303085
-170.778778
-174.784393
-178.826172
-181.275833
-180.989731
-177.796249
-172.405518
-165.917068
-159.228210
-152.637817
-145.746613
-137.503418
-126.275009
-110.001633
-86.399048
-53.687241
-11.540215
38.090900
90.965675
141.654465
185.316895
219.552368
245.187485
265.663208
285.274109
307.041626
331.306274
355.554749
375.561981
387.046387
387.196655
375.381805
352.993042
322.602661
287.056946
248.804352
209.749451
171.297760
134.513397
100.140671
68.375854
38.829620
10.561157
-17.442383
-45.766769
-74.173149
-101.679497
-126.919960
-148.741821
-166.654602
-181.068542
-192.991272
-203.503174
-213.070770
-221.093323
-225.961838
-225.550476
-218.103745
-202.928497
-180.691879
-152.969666
-121.656487
-88.234306
-53.507324
-17.738358
18.832199
55.601017
91.503723
125.191193
155.568680
182.118835
204.855377
224.128281
240.309784
253.749664
264.818634
273.916992
281.243469
286.239258
287.169830
281.156616
264.982849
236.363083
195.072906
143.435654
85.680901
26.583336
-29.931488
-81.489639
-127.136177
-166.496094
-198.974396
-223.442505
-238.608658
-243.715485
-239.115250
-226.436523
-208.176163
-187.060608
-165.404861
-144.761276
-125.940933
-109.151520
-94.331238
-81.314804
-69.977783
-60.130890
-51.599487
-44.191772
-37.737396
-32.090057
-27.147903
-22.763962
-18.751984
-14.931610
-11.121368
-7.161850
-2.754135
2.557205
9.424637
18.537201
30.324371
44.680695
60.827759
77.493622
93.371552
107.485046
119.465179
129.272308
136.844574
141.688416
142.836365
139.175903
129.959503
115.253296
95.967407
73.706970
50.134033
26.598175
3.876617
-17.896332
-38.936401
-59.550171
-79.938110
-100.105988
-120.014252
-139.661499
-159.232239
-178.957825
-198.988525
-219.250580
-239.424927
-259.065643
-277.802765
-295.405365
-311.581085
-325.881409
-337.424072
-345.032959
-347.339722
-343.079407
-331.324860
-311.642822
-284.172363
-249.676788
-209.537323
-165.544617
-119.652588
-73.532120
-28.341278
15.310944
57.115677
96.846725
134.157288
168.691849
200.360611
229.376038
256.201965
280.989807
303.145447
321.110809
332.678497
335.624695
328.466705
311.003876
284.361816
250.662399
212.483063
172.314575
132.209686
93.644730
57.652431
25.007057
-3.636436
-27.711132
-46.721630
-60.424839
-68.950798
-72.850273
-73.044708
-70.597000
-66.541702
-61.721382
-56.834885
-52.440052
-49.070358
-47.165310
-46.996216
-48.563007
-51.537636
-55.379829
-59.475140
-63.300259
-66.456528
-68.741150
-70.043961
-70.235886
-69.199104
-66.735283
-62.658852
-56.838272
-49.201736
-39.895706
-29.226494
-17.687561
-5.817413
5.925941
17.320335
28.395668
39.389076
50.554779
62.133171
74.354942
87.518448
102.002701
118.104317
135.672287
153.759033
170.638840
184.068405
191.977219
193.125641
187.418472
175.719864
159.267502
139.235596
116.448914
91.627380
65.775696
40.420181
17.371704
-1.812561
-16.475739
-26.970627
-34.448318
-40.127167
-44.626068
-47.680984
-48.422165
-46.017700
-40.420517
-32.650452
-24.646622
-18.646057
-16.510483
-19.420486
-27.871277
-41.904495
-61.220856
-85.089066
-112.007950
-139.616028
-165.013428
-185.518829
-199.448318
-206.439407
-207.124008
-202.315125
-192.290131
-176.689713
-155.072906
-127.794083
-96.566757
-64.273102
-34.240936
-9.202377
9.418854
21.580795
28.190872
30.446609
29.393631
25.820343
20.518570
14.491821
8.993347
5.458038
5.192139
9.320770
18.746490
34.256042
56.461060
85.490936
120.431976
158.826263
196.735016
229.310333
251.915466
261.275818
256.179016
237.449554
207.421204
169.211273
126.168732
81.514435
38.130554
-1.714722
-36.458374
-65.456207
-88.711639
-106.481354
-118.924774
-125.941101
-127.401367
-123.553253
-115.208618
-103.784454
-90.984467
-78.420959
-67.322235
-58.478210
-52.247650
-48.551727
-46.872437
-46.243073
-45.408752
-43.184509
-38.700592
-31.678802
-22.349762
-11.332855
0.598846
12.746765
24.543427
35.630920
45.885101
55.396759
64.394836
73.038055
81.313110
88.895813
95.123047
99.087646
99.947174
97.090820
90.374054
80.093933
66.872253
51.533875
35.032013
18.531677
3.468140
-8.440704
-15.427612
-15.864716
-8.678925
6.439178
28.843109
56.836426
87.749817
118.068970
143.942963
161.802338
169.075562
164.748169
149.453247
125.107483
94.172302
58.980133
21.322052
-17.448883
-56.141113
-93.367096
-127.431152
-156.557098
-179.165009
-194.231537
-201.308472
-200.504089
-192.214600
-177.199890
-156.617981
-132.131073
-105.895721
-80.308502
-57.530182
-39.099335
-25.631348
-16.882690
-12.064148
-10.271454
-10.741669
-13.047668
-17.083282
-22.880646
-30.391510
-39.293549
-48.855438
-57.935760
-65.118774
-69.014557
-68.535248
-63.234039
-53.338440
-39.790619
-23.960480
-7.297333
8.981140
24.135559
37.870850
50.200958
61.210968
70.909821
79.243042
86.182281
91.917755
96.758301
101.131958
105.354858
109.546539
113.619781
117.418579
120.648132
122.904327
123.429413
121.017761
114.242096
101.793884
83.170593
59.037994
31.327728
2.680267
-24.342010
-47.996582
-67.789001
-84.230774
-98.332153
-110.986511
-122.542206
-132.788727
-141.305634
-147.874725
-152.638245
-156.038452
-158.465302
-159.990265
-160.293579
-158.977570
-156.045349
-152.129211
-148.415283
-146.176575
-146.249817
-148.548859
-152.230042
-155.866882
-157.949707
-157.052246
-151.909302
-141.421814
-124.676086
-101.222473
-71.264709
-35.815247
3.419189
44.491089
85.570068
125.276489
162.621887
196.893616
227.289978
252.883484
272.585144
285.485291
291.121094
289.897461
283.262329
273.617554
263.977051
257.172913
254.996887
257.416504
262.439636
266.636108
266.128479
257.906006
240.575378
214.627930
181.861694
144.714966
105.628296
66.755981
29.974243
-3.006104
-30.743042
-52.265198
-67.385559
-76.732666
-81.460266
-82.740662
-81.474854
-78.078064
-72.733704
-65.727478
-57.787231
-50.186768
-44.554016
-42.525330
-45.235291
-53.062195
-65.458801
-81.076599
-98.133484
-114.815369
-129.654785
-141.769897
-150.788086
-156.600800
-159.135010
-158.122253
-153.135559
-143.817444
-129.991180
-111.779816
-89.593353
-64.052155
-35.900238
-5.961731
24.852783
55.726440
86.051483
115.649811
144.694061
173.530762
202.237000
230.340881
256.532806
278.673309
294.167572
300.424744
295.551575
278.912384
251.440887
215.489044
174.352936
131.431824
89.516602
50.456573
15.180237
-15.934875
-42.739868
-65.097778
-83.005554
-96.682343
-106.526489
-112.998459
-116.448151
-117.148849
-115.507202
-112.242859
-108.479126
-105.415833
-103.983612
-104.524170
-106.805634
-110.166367
-113.962357
-117.574905
-120.581161
-122.701706
-123.862152
-124.171303
-123.959427
-123.594139
-123.241234
-122.758308
-121.606850
-119.022240
-114.305954
-107.041397
-97.319656
-85.730263
-73.235420
-60.869034
-49.447006
-39.285492
-30.094456
-21.149384
-11.572990
-0.645687
11.951889
26.185059
41.579624
57.267406
71.824524
83.423203
90.020752
89.869629
82.125870
67.242531
46.969414
24.004608
1.086201
-19.528709
-36.669548
-50.163784
-60.499962
-68.198280
-73.451447
-76.042191
-75.572311
-72.002945
-65.886421
-58.309479
-50.469505
-43.193489
-36.770599
-31.156876
-26.420006
-23.050957
-21.924026
-23.769936
-28.688866
-35.884529
-43.820801
-50.828804
-55.691521
-57.980202
-57.910706
-56.055382
-52.913681
-48.718498
-43.526642
-37.270569
-30.030930
-21.899498
-13.074493
-3.685837
6.216797
16.623627
27.532288
38.854858
50.475708
62.158783
73.599976
84.456070
94.445282
103.364426
111.315979
118.639816
125.842865
133.461670
141.684723
150.201691
157.967804
163.381134
164.580276
159.920883
148.451263
130.276962
106.558990
79.283615
50.828674
23.493301
-0.890259
-21.207016
-37.107681
-48.805634
-56.981155
-62.418015
-65.851166
-67.862503
-68.894379
-69.303482
-69.383194
-69.295731
-69.141113
-68.957489
-68.907898
-69.266800
-70.458603
-72.790146
-76.253128
-80.365219
-84.332916
-87.159363
-88.070511
-86.516769
-82.417496
-76.087784
-68.155563
-59.334167
-50.272156
-41.280670
-32.341248
-23.230408
-13.723694
-3.772675
6.466141
16.946411
27.809387
39.323059
51.649460
64.502945
77.069183
88.314301
97.461761
104.335991
109.521988
114.105453
119.243599
125.953491
134.795105
145.646698
157.565903
168.771912
176.850815
179.471497
174.946045
162.911987
144.421478
121.494141
96.436821
71.275597
47.328156
25.210320
5.059486
-13.280655
-30.094204
-45.676506
-60.267807
-73.943031
-86.607727
-97.958374
-107.650482
-115.312302
-120.770683
-124.052391
-125.437019
-125.449326
-124.715530
-123.839012
-123.302734
-123.358002
-123.965210
-124.875694
-125.608757
-125.563835
-124.150955
-120.918457
-115.656174
-108.466507
-99.728287
-89.892807
-79.428940
-68.734314
-58.131821
-47.945137
-38.400303
-29.610521
-21.472717
-13.713526
-5.986149
1.993718
10.321532
18.921850
27.682407
36.525841
45.550846
54.983597
65.135246
76.327408
88.688385
101.987457
115.290985
127.025253
135.021622
137.034058
131.434647
117.801361
97.148590
71.697708
44.205166
17.273750
-7.237886
-28.442299
-46.144966
-60.637138
-72.281662
-81.384621
-88.102455
-92.481796
-94.517319
-94.129562
-91.282257
-85.983673
-78.373917
-68.799789
-57.819519
-46.185875
-34.715302
-24.139519
-14.933704
-7.330055
-1.308796
3.344326
7.009399
10.281605
13.873573
18.348927
23.815727
29.796261
35.233280
39.051456
40.583042
40.005753
38.280018
36.778645
36.712704
38.732388
42.768768
48.240452
54.393806
60.581432
66.448914
71.948112
77.379532
83.223740
90.172882
98.897865
109.906532
123.218430
138.090500
152.883514
165.274689
172.736343
173.240570
165.897705
151.168274
130.487076
105.789391
78.849693
51.027283
23.389885
-3.112406
-27.566553
-49.190475
-67.568802
-82.811676
-95.470413
-106.149445
-115.287018
-122.948624
-128.987335
-133.220688
-135.627106
-136.424576
-135.935928
-134.486145
-132.336624
-129.753601
-127.064346
-124.558708
-122.423119
-120.594170
-118.708488
-116.209534
-112.500084
-107.175446
-100.204948
-91.830406
-82.387848
-72.166870
-61.199806
-49.394493
-36.707092
-23.238731
-9.267067
4.843796
18.940186
33.060860
47.279053
61.485382
75.162849
87.484200
97.650284
105.395210
111.180321
116.157272
121.739128
129.008682
138.328339
149.115021
159.916000
168.698944
173.272583
171.691925
162.711914
146.057892
122.487503
93.712608
61.977882
29.550888
-1.555939
-29.907516
-54.774643
-76.019592
-93.929764
-108.996460
-121.586441
-131.863937
-139.747314
-145.113663
-147.935928
-148.410004
-146.882324
-143.791428
-139.553574
-134.685516
-129.697357
-125.189774
-121.614853
-119.054367
-117.148270
-115.143967
-112.175064
-107.574142
-101.094543
-92.870277
-83.194046
-72.391106
-60.653748
-48.093307
-34.776352
-20.857063
-6.606178
7.584480
21.181213
33.584808
44.394051
53.412643
60.726395
66.571701
71.221794
74.856682
77.581627
79.605003
81.316498
83.347656
86.510612
91.550735
98.870850
108.311920
118.885254
128.847473
135.967789
137.884064
132.831970
120.125137
100.289391
74.964844
46.329834
16.642056
-12.136076
-38.501778
-61.505928
-80.732918
-96.236130
-108.371338
-117.480591
-123.706757
-126.822449
-126.474167
-122.497063
-115.196259
-105.306473
-93.850929
-81.800087
-69.870247
-58.443878
-47.684853
-37.587917
-27.982422
-18.563980
-8.970036
1.099865
11.673512
22.579422
33.393017
43.605938
52.771263
60.471111
66.418686
70.482704
72.752319
73.463036
72.988800
71.727180
70.050293
68.313301
66.984138
66.483086
67.165810
69.128105
72.198715
76.076942
80.525047
85.544952
91.502205
98.901115
108.067055
118.770966
129.959396
139.757721
145.715134
145.403381
137.087036
120.337845
96.188202
66.916046
35.352165
4.098389
-25.066284
-51.182751
-73.946686
-93.295303
-109.156708
-121.500504
-130.417755
-136.144928
-139.078568
-139.619049
-138.011322
-134.368195
-128.794922
-121.453484
-112.722984
-103.068192
-92.881149
-82.388123
-71.604210
-60.408012
-48.740845
-36.708782
-24.559036
-12.529008
-0.741054
10.828085
22.345383
33.846817
45.129864
55.746887
65.167213
73.041283
79.317459
84.276611
88.418732
92.235336
96.135750
100.402611
105.213943
110.459999
115.761154
120.447845
123.790672
125.265442
124.773651
122.561127
119.055618
114.486710
108.590614
100.470642
88.766403
72.256622
50.326965
23.369118
-7.156605
-38.992416
-69.589821
-96.940674
-120.070969
-138.906860
-153.795090
-165.057861
-172.661133
-176.321686
-175.751282
-170.787537
-161.996918
-150.863678
-139.218079
-128.353088
-118.805801
-110.536842
-103.134293
-96.087746
-88.508255
-80.266937
-72.398300
-66.162331
-61.802284
-58.437538
-54.590698
-49.044746
-41.508827
-31.863937
-21.417885
-12.943207
-8.911217
-9.690315
-13.769524
-18.835640
-22.579987
-22.839584
-16.144379
-0.002483
25.273590
56.826557
90.417732
120.799118
142.693756
152.597229
141.935760
111.636612
75.637993
48.486534
34.319157
29.296972
27.780378
26.057985
23.228699
20.238943
19.535078
21.891241
25.176394
26.387157
24.172892
19.125061
12.845434
7.051367
2.843981
1.482681
2.955420
5.394964
6.582768
5.603020
2.836014
-0.755896
-4.250719
-7.090775
-8.486197
-8.297802
-7.391621
-6.879839
-7.208864
-8.254814
-9.764563
-11.557928
-13.584091
-15.449657
-16.844643
-17.777744
-18.435905
-18.887569
-19.207237
-19.560406
-20.202595
-21.397793
-23.266495
-25.958542
-29.548073
-33.673798
-37.116352
-37.918343
-34.071899
-24.525909
-9.925755
7.284073
23.626415
35.990482
42.644302
43.598755
40.079834
33.728653
25.752754
16.869690
7.902496
-0.438843
-6.925072
-10.412560
-10.429451
-7.553833
-3.219185
0.831406
3.225288
3.574280
2.467880
1.323334
1.639587
4.362961
9.477913
15.971794
22.185844
26.472046
27.825920
26.210342
22.621796
18.593864
15.673714
14.822197
16.118904
18.754990
21.359962
22.598663
21.686630
18.830254
15.023094
11.543732
9.434166
9.159721
10.520187
13.036003
16.298141
19.980713
23.878952
27.769485
31.445518
34.994469
38.928970
44.019226
50.836288
59.274818
68.116730
75.377144
79.046349
77.999168
72.542320
64.353996
55.733955
48.756485
44.506416
42.838818
42.699375
42.731644
41.796146
39.190956
34.583862
28.040726
19.372570
8.656170
-3.759441
-17.152897
-30.790081
-44.192989
-57.421535
-70.795532
-84.432037
-97.594360
-108.631310
-115.526917
-116.856018
-112.597000
-104.281425
-94.196625
-84.487595
-76.090355
-68.570213
-60.602573
-51.116791
-40.099358
-28.880714
-19.464870
-13.462652
-11.298164
-12.067368
-14.131954
-16.046965
-17.187555
-17.984282
-19.276773
-21.644476
-24.860243
-27.883814
-29.361996
-28.271532
-24.278160
-18.022829
-10.939996
-5.013541
-2.217927
-3.967431
-10.531656
-20.903362
-33.020554
-44.465424
-53.412373
-59.377457
-63.130966
-66.073395
-69.208389
-72.532059
-75.048737
-75.448692
-72.645477
-66.406998
-57.222206
-45.804890
-32.512012
-17.230583
0.558186
21.335770
44.163284
67.499718
89.530121
108.654045
123.973061
135.235245
142.724319
146.787476
147.519043
144.626144
137.819016
126.922241
112.178680
94.241486
73.910957
51.876526
28.573357
4.204491
-20.915627
-46.040787
-70.037735
-91.480576
-108.931488
-121.196930
-127.447266
-127.360291
-121.291855
-110.284561
-95.782440
-79.365570
-62.198563
-44.684647
-26.410858
-6.582764
15.364792
39.101929
63.408890
86.293900
105.484451
119.010513
125.620346
124.897064
117.382019
104.386002
87.659515
69.004608
49.908020
31.356110
13.940521
-1.991257
-16.091019
-27.975723
-37.301682
-43.954926
-47.991608
-49.615631
-48.995300
-46.065277
-40.655212
-32.635895
-22.178635
-9.949783
2.848755
14.787750
24.599411
31.540985
35.635162
37.518173
38.101608
38.181747
38.100830
37.740753
36.943283
35.641403
34.038086
32.426987
30.887726
29.103821
26.432266
22.261856
16.325729
8.865616
0.522736
-8.004562
-16.185135
-23.775253
-30.619949
-36.423691
-40.631577
-42.482452
-41.346588
-37.060913
-30.010452
-20.992462
-10.840210
-0.017685
11.657791
24.873688
40.435318
58.836914
79.885208
102.639137
125.609055
147.057190
165.312393
179.044403
187.445892
190.463440
188.840622
183.984604
177.599731
171.182098
165.599030
160.863220
156.357651
151.272339
144.982285
137.257462
128.122910
117.581161
105.389389
90.981232
73.599144
52.523983
27.419205
-1.520782
-33.471283
-67.081970
-100.702461
-132.693863
-161.723938
-186.877228
-207.601318
-223.725372
-235.258209
-242.372452
-245.260925
-244.193237
-239.508713
-231.547211
-220.727875
-207.454163
-192.067520
-174.804245
-155.747772
-135.025711
-112.976868
-90.378784
-68.449738
-48.695801
-32.553680
-21.014526
-14.459290
-12.624908
-14.778351
-19.897522
-26.725403
-33.937164
-40.291016
-44.821899
-46.889160
-46.256134
-43.020508
-37.402924
-29.724152
-20.355865
-9.693268
1.903229
14.297729
27.408447
40.947571
54.186890
65.602844
73.110504
74.657623
69.000107
56.291962
38.087570
16.759613
-5.438919
-26.925674
-47.109650
-66.069580
-84.053162
-101.120865
-117.016083
-131.367767
-143.866425
-154.511307
-163.454315
-171.048721
-177.676392
-183.616180
-189.002655
-193.885864
-198.209869
-201.861771
-204.666382
-206.247314
-206.070404
-203.408356
-197.499176
-187.793076
-174.148071
-156.937393
-136.874512
-114.750694
-91.108597
-66.133759
-39.745399
-11.865913
17.328178
47.357063
77.575684
107.420670
136.463028
164.543274
191.524750
217.188690
241.301666
263.622681
284.139526
303.081177
320.849915
337.726288
353.645508
368.136292
380.458221
389.884583
395.884247
398.270660
397.002930
392.057281
383.192535
369.951660
351.788788
328.214905
298.994354
264.196564
224.282867
180.040497
132.581604
83.199310
33.338989
-15.605698
-62.354126
-105.756042
-144.906174
-179.144196
-207.983185
-231.167969
-248.618729
-260.413025
-266.759094
-268.115417
-265.149841
-258.626404
-249.387070
-238.126785
-225.415680
-211.772949
-197.830490
-184.447830
-172.532410
-162.749512
-155.180420
-149.303696
-144.208984
-138.971741
-133.098297
-126.580002
-119.695496
-112.704544
-105.561310
-97.850357
-88.889648
-77.997391
-64.835815
-49.523682
-32.579453
-14.844849
2.949860
20.358734
37.442352
54.631119
72.503326
91.379013
111.096039
131.038208
150.267044
167.734894
182.464417
193.545486
200.412003
202.924866
201.472778
196.930023
190.486588
183.254440
175.900101
168.492966
160.417862
150.696976
138.374191
122.847839
104.168304
83.053314
60.584396
38.037582
16.528595
-3.144882
-20.584641
-35.755890
-48.935425
-60.624954
-71.414383
-81.794220
-91.918839
-101.483627
-109.809113
-116.131546
-119.928284
-121.191818
-120.241043
-117.585403
-113.622421
-108.526108
-102.320587
-95.084457
-86.981979
-78.240570
-69.074249
-59.603653
-49.955978
-40.359421
-31.180908
-22.936676
-16.095871
-10.939224
-7.596237
-6.017639
-6.009445
-7.253326
-9.231689
-11.155731
-12.099442
-11.229782
-8.105194
-2.847931
3.877075
11.083038
17.897354
23.800858
28.775665
33.167953
37.499039
42.263336
47.856613
54.506195
62.396698
71.528778
81.648026
92.002609
101.293564
107.832108
109.913925
106.407028
97.099213
82.790527
64.984558
45.520523
26.036423
7.702103
-8.739426
-22.850342
-34.336914
-42.997681
-48.733459
-51.652084
-52.074936
-50.397568
-46.972214
-42.086014
-36.013153
-29.097916
-21.867157
-15.013718
-9.327087
-5.544449
-4.156387
-5.439896
-9.408859
-15.884872
-24.510315
-34.781723
-45.971619
-57.083847
-67.045242
-74.875427
-79.972244
-82.267853
-82.341736
-81.079697
-79.295273
-77.285934
-74.671280
-70.527008
-63.793579
-53.731506
-40.143600
-23.405899
-4.189621
16.613632
38.157593
59.647705
80.358353
99.726425
117.596176
134.356400
150.817719
167.848434
185.664444
203.339401
218.752731
229.097504
231.928482
226.088898
212.091248
191.944885
168.317596
143.718689
119.920502
97.990883
78.417686
61.498421
47.344337
35.872818
26.761902
19.464127
13.279488
7.541836
1.532406
-5.535305
-14.375862
-25.584332
-39.392723
-55.707424
-74.060188
-93.824860
-114.368736
-135.004364
-155.015778
-173.486649
-189.423676
-201.850937
-209.960175
-213.335327
-212.117645
-206.936371
-198.736053
-188.442322
-176.650391
-163.542053
-148.910706
-132.290466
-113.369904
-92.170731
-69.145050
-45.216164
-21.662338
0.128418
18.863083
33.659554
44.186676
50.770615
54.339333
56.302643
58.313904
62.084702
69.112419
80.209663
95.174438
112.561516
129.780426
143.732513
151.655197
151.907715
144.276154
130.004593
111.321869
90.772697
70.660606
52.517365
37.068832
24.297356
13.720924
4.858307
-2.534782
-8.332108
-12.259377
-14.107506
-13.880890
-11.922623
-8.807663
-5.236649
-2.051804
-0.133667
-0.400360
-3.561813
-9.985550
-19.520691
-31.428955
-44.556320
-57.614014
-69.462158
-79.288376
-86.766815
-92.059433
-95.614288
-97.949539
-99.378128
-99.743347
-98.492355
-94.880005
-88.341324
-78.806061
-66.726105
-52.914246
-38.176620
-23.126083
-8.034378
7.107391
22.492035
38.301590
54.614059
71.330688
88.169098
104.466660
119.144302
130.703812
137.407776
137.638367
130.421173
115.781540
94.880554
69.706345
42.644073
15.928436
-8.690048
-30.063797
-47.638519
-61.174835
-70.817291
-77.058838
-80.691971
-82.625458
-83.645218
-84.118958
-83.889969
-82.621414
-80.090378
-76.552048
-72.746506
-69.557022
-67.534256
-66.572632
-65.918503
-64.580612
-61.686203
-56.729767
-49.603851
-40.501984
-29.727219
-17.773453
-5.311035
6.893997
18.197357
28.149109
36.542145
43.421555
48.794632
52.789993
55.722321
58.221359
61.378098
66.445160
74.554977
86.205688
100.915466
117.015137
131.873260
142.544678
146.524994
142.580032
131.102142
113.892212
93.461761
72.134430
51.479858
32.290771
14.764511
-1.113800
-15.363693
-28.169769
-39.856049
-50.969757
-61.907074
-72.708191
-82.894531
-91.651581
-98.208344
-102.017731
-103.033325
-101.659332
-98.591919
-94.671051
-90.697815
-87.292633
-84.708130
-82.778381
-80.869110
-78.104553
-73.591949
-66.704956
-57.349884
-46.056610
-33.725067
-21.395935
-9.850372
0.571930
9.930481
18.473724
26.368713
33.589355
40.015259
45.575134
50.443451
55.040070
59.835632
65.338776
72.056305
80.369751
90.637451
102.858185
116.513153
130.264679
142.044922
149.462402
150.360199
143.408752
128.479614
106.786987
80.498016
52.245087
24.596344
-0.399017
-21.497345
-38.279480
-50.991608
-60.314362
-67.140686
-72.411163
-76.928406
-81.194946
-85.335754
-89.010101
-91.618408
-92.641388
-92.001373
-90.212463
-88.310974
-87.474304
-88.428894
-91.296143
-95.572662
-100.408783
-104.998291
-108.836884
-111.779999
-113.943420
-115.459351
-116.240051
-115.850616
-113.381378
-107.707428
-97.938751
-83.877991
-66.264465
-46.782288
-27.435089
-9.946960
4.763092
16.775452
26.881836
36.236664
45.815857
56.120453
67.090973
78.155334
88.502777
97.376190
104.440399
109.879242
114.339447
118.739410
123.962799
130.663422
139.165222
149.258087
160.005157
169.655640
175.913391
176.574524
170.318848
157.293671
138.942841
117.363586
94.366882
70.983826
47.616608
24.434235
1.917786
-19.072418
-37.559448
-52.933044
-65.172607
-74.615112
-81.692261
-86.661682
-89.619232
-90.659637
-90.062622
-88.433167
-86.470917
-84.859406
-84.140717
-84.509430
-85.919464
-88.081512
-90.540649
-92.700195
-93.908386
-93.489563
-90.845428
-85.517792
-77.480499
-67.084595
-55.064209
-42.242340
-29.390961
-17.044403
-5.436310
5.323120
15.263336
24.374939
32.776733
40.688812
48.319458
55.931580
63.806946
72.318420
81.952606
93.348206
106.924530
122.538269
139.133209
154.690765
166.548828
171.976624
168.961609
156.613647
135.403412
107.084656
74.209229
39.659027
5.983887
-24.920990
-51.999512
-74.873352
-93.654053
-108.510406
-119.698151
-127.447113
-131.991028
-133.666077
-132.805206
-129.669861
-124.525146
-117.618958
-109.349335
-100.297028
-91.114044
-82.347321
-74.366791
-67.167725
-60.568512
-54.312469
-48.252380
-42.447388
-37.174713
-32.769348
-29.429840
-26.981537
-24.876923
-22.291656
-18.464050
-13.088654
-6.376312
0.972473
8.148743
14.744171
20.783508
26.947998
34.222382
43.625244
55.920502
71.200378
88.605835
106.202789
121.231781
130.695160
132.221649
124.833801
109.163666
87.411987
62.528687
37.587402
15.114899
-3.320404
-17.251343
-27.241974
-34.522827
-40.566315
-46.573517
-53.011108
-59.653351
-65.830231
-70.875244
-74.316956
-75.878662
-75.493927
-73.351593
-69.910156
-66.128387
-63.195557
-62.099457
-63.133667
-65.685150
-68.581787
-70.622253
-71.129333
-70.083740
-67.964294
-65.248230
-62.086456
-58.232941
-53.184021
-46.421661
-37.515839
-26.321136
-12.875061
2.491669
19.102600
36.128479
52.582703
67.639404
80.780334
91.974792
101.668121
110.599670
119.655701
129.631561
141.073212
154.056122
168.048309
181.766663
193.257172
200.194916
200.391174
192.397552
175.879303
151.700745
121.682983
88.132812
53.395660
19.546143
-11.777100
-39.393097
-62.602905
-81.269653
-95.687897
-106.506378
-114.424561
-119.976196
-123.388245
-124.610779
-123.517792
-120.078766
-114.562714
-107.506195
-99.680084
-91.971924
-85.226715
-80.025421
-76.601379
-74.738312
-73.878571
-73.290649
-72.306366
-70.535004
-67.966797
-64.840942
-61.542389
-58.338745
-55.333191
-52.381226
-49.185638
-45.452728
-40.975983
-35.774780
-30.065125
-24.140686
-18.209015
-12.137665
-5.484680
2.248993
11.445648
22.140686
34.008820
46.573761
59.439209
72.427368
85.637756
99.379150
114.019165
129.943817
147.261078
165.682953
184.163330
200.947845
213.664612
219.899719
217.856598
206.902985
187.733948
162.214569
132.792572
101.960327
71.709473
43.203491
16.786682
-7.738495
-30.833435
-52.675232
-73.095123
-91.554077
-107.336548
-119.845642
-128.781952
-134.112335
-136.085480
-135.257660
-132.597107
-129.290466
-126.683899
-125.705627
-126.622040
-128.964996
-131.741180
-133.829773
-134.391418
-132.819244
-128.862152
-122.674896
-114.830444
-106.236145
-98.047119
-91.143005
-85.766571
-81.485474
-77.342041
-72.400940
-66.039612
-57.973694
-48.212463
-36.834961
-24.147644
-10.637024
2.891632
15.678955
27.262543
37.819641
48.066467
58.966370
71.346191
85.865204
102.735168
121.629822
141.543610
160.506531
175.928558
185.037292
185.583923
176.657745
158.910324
134.247437
105.010956
73.534561
41.384903
9.768646
-20.522949
-49.104965
-75.660339
-99.975189
-121.893280
-141.518738
-159.038696
-175.048859
-189.680527
-202.865875
-214.481522
-224.025574
-230.872833
-234.356033
-234.437134
-231.485870
-226.759903
-220.536255
-212.314697
-200.883453
-184.168793
-159.923721
-126.235832
-82.852844
-31.043507
26.072697
86.157951
146.339157
200.630295
242.348724
267.125977
275.082275
269.113678
259.417328
248.777496
238.069733
227.918076
219.312958
214.042160
210.461823
208.617798
208.256760
208.889099
209.012573
208.260315
206.858826
205.288345
204.397507
204.959991
207.760834
212.447723
217.711334
220.938202
220.100372
213.746429
201.093994
182.351089
158.669739
132.221588
105.038361
78.746277
53.887108
30.825621
9.639015
-9.793346
-27.496452
-43.384663
-57.164246
-68.866005
-78.783295
-87.535263
-95.585716
-103.330498
-111.143272
-119.507309
-128.862411
-139.395737
-151.101364
-163.582321
-176.182098
-187.853119
-197.403427
-203.792267
-206.473816
-205.556244
-201.776871
-196.257080
-189.980942
-183.402725
-176.345901
-168.175003
-158.259140
-146.459824
-133.245605
-119.587830
-106.597549
-95.115799
-85.653534
-78.291595
-72.874802
-69.036026
-66.314697
-64.080551
-61.591751
-58.227081
-53.458435
-47.122894
-39.330154
-30.290909
-20.197266
-9.024796
3.380630
17.166260
32.211807
48.058517
63.877136
78.745438
91.901016
102.989883
112.146866
120.008514
127.530869
135.565292
144.522873
153.994598
162.591919
168.267838
168.866638
162.871002
149.930069
131.063782
108.326874
84.250198
61.148743
40.698174
23.823189
10.672531
0.902946
-6.224983
-11.598885
-16.109406
-20.343735
-24.457054
-28.179626
-30.941521
-32.116585
-31.285614
-28.450798
-24.059616
-19.004311
-14.298737
-10.872192
-9.250748
-9.330765
-10.414627
-11.446045
-11.308060
-9.329941
-5.569229
-0.857071
3.469559
5.956375
5.583054
2.080841
-3.886841
-11.021118
-17.735306
-22.776306
-25.613449
-26.480026
-26.210098
-25.741730
-25.748718
-26.459229
-27.746170
-29.386917
-31.284424
-33.428299
-35.796066
-38.150803
-39.914154
-40.284683
-38.447021
-33.844360
-26.236053
-15.726364
-2.591446
12.846298
30.273071
49.402481
69.928802
91.377213
112.998138
133.751373
152.236603
166.849686
176.003082
178.212280
172.549057
158.793213
137.646118
110.768143
80.522476
49.370468
19.285110
-8.547318
-33.856857
-56.914001
-78.119476
-97.715439
-115.609421
-131.570480
-145.238510
-156.139130
-163.777603
-167.879227
-168.584808
-166.633484
-163.387589
-160.456070
-159.305618
-160.908432
-165.571808
-173.002640
-182.494156
-192.895355
-202.919907
-211.319336
-217.152313
-220.074692
-220.181961
-217.864624
-213.352417
-206.556046
-197.021744
-184.250626
-167.995132
-148.239349
-125.337624
-99.825371
-72.376228
-43.901978
-15.551514
11.438740
35.916378
57.187485
75.254868
90.721107
104.539223
117.663002
130.685196
143.754913
156.706299
169.292709
181.357407
192.877930
203.854218
214.268692
224.015656
232.972443
241.040710
247.956329
253.041290
255.024231
252.129242
242.506378
224.963272
199.514053
167.607162
131.818909
95.162491
60.314148
29.157516
2.703568
-18.737595
-35.214691
-46.963577
-54.188889
-57.151520
-56.210815
-51.798431
-44.541458
-35.124054
-24.270706
-12.581985
-0.441803
11.982635
24.570450
36.984100
48.643097
58.655792
66.052856
70.026505
70.101746
66.272552
58.966156
49.040146
37.699646
26.345383
16.242172
8.323563
2.957733
0.012878
-0.907883
-0.137131
2.171211
6.043930
11.526947
18.449974
26.543449
35.467995
45.010849
55.163666
66.053993
77.931854
90.884407
104.787888
119.045807
132.668701
144.512817
153.725555
160.336792
165.561951
171.483749
180.370361
193.667221
211.223114
231.114227
249.976151
263.737183
268.574097
261.829437
242.846375
213.451492
177.699295
140.698990
106.943573
78.738342
55.412079
33.962433
10.649902
-17.240692
-50.250549
-86.569458
-122.770142
-154.902527
-179.477631
-194.400024
-199.469696
-196.654297
-189.865173
-183.767273
-182.119934
-186.311646
-194.674744
-203.276978
-207.703613
-205.015625
-194.901489
-179.643799
-162.832825
-147.687439
-135.917419
-127.504700
-121.392517
-116.599487
-112.832275
-110.504822
-110.135925
-111.665894
-114.567932
-118.277649
-122.687317
-128.326111
-135.875671
-145.299622
-155.322205
-163.705200
-167.989746
-166.535522
-158.923462
-145.615479
-127.396179
-104.987732
-79.094666
-50.881714
-22.359802
3.806641
24.856384
38.617371
44.038269
41.120483
30.665527
14.114807
-6.637390
-29.259216
-51.081909
-69.500366
-82.454407
-88.973938
-89.390503
-85.169800
-78.376221
-71.053711
-64.609558
-59.416809
-55.088318
-50.759155
-45.586548
-39.067932
-31.253113
-22.634399
-13.979248
-6.212646
-0.021423
4.278442
6.930359
8.679932
10.530762
13.371582
17.714233
23.562195
30.487305
37.827026
44.889160
51.142517
56.257751
60.266418
63.534363
66.734497
70.688904
76.072083
83.162170
91.736450
101.264221
111.203674
121.390869
132.068909
143.675049
156.449585
169.920105
182.898071
193.576050
199.987976
200.595642
194.677124
182.371826
164.626221
142.769714
118.173950
92.073669
65.411072
38.878723
12.950500
-12.069763
-36.043945
-59.006470
-80.892639
-101.555542
-120.496338
-136.940247
-150.143188
-159.612976
-165.304138
-167.551636
-166.713867
-163.040466
-156.758850
-148.336304
-138.636902
-129.010864
-120.729065
-114.568237
-110.482666
-107.732422
-105.350464
-102.647156
-99.343872
-95.573181
-91.523804
-87.364868
-83.139587
-78.820435
-74.266907
-69.156860
-63.055054
-55.520935
-46.405090
-35.941101
-24.372803
-11.802185
2.208252
18.495972
38.022522
61.380127
88.613220
119.029663
151.182312
182.984009
211.873169
235.118225
250.561829
257.152527
255.251099
246.419739
232.738037
215.948303
196.861450
175.324890
150.664978
122.404602
90.908569
57.608154
24.827942
-4.977600
-29.919006
-49.080261
-62.783508
-72.036926
-78.054016
-81.834045
-84.094238
-85.475037
-86.799011
-88.972229
-92.634216
-97.826355
-103.937317
-109.930481
-114.807190
-117.950012
-119.016663
-117.795654
-114.040771
-107.421265
-97.690186
-84.868347
-69.361755
-51.926147
-33.602844
-15.674194
0.450195
13.414185
22.137573
26.140564
25.739197
22.026550
16.520508
10.846130
6.334229
3.890686
3.891602
6.285278
10.697327
16.610596
23.539368
31.393616
40.463318
51.437073
64.879395
80.706665
97.779907
113.835083
125.890808
131.038391
127.375122
114.481750
93.480164
66.655579
36.608032
5.641235
-24.505920
-52.566833
-77.416748
-97.994080
-113.489990
-123.680542
-129.169250
-131.283325
-131.544678
-131.078918
-130.376404
-129.219727
-127.224182
-124.202332
-120.429321
-116.510681
-113.068665
-110.349792
-107.966125
-105.001770
-100.253479
-92.683044
-81.981689
-68.742065
-54.450684
-40.956238
-29.736572
-21.498291
-16.169312
-13.276794
-12.277039
-12.679810
-13.857300
-14.752502
-13.968323
-10.177917
-2.841919
7.374023
18.730225
29.102356
36.914551
41.880249
45.198486
49.018616
55.606934
66.542725
82.137878
101.499878
122.941345
144.672394
165.390442
184.158325
199.955292
211.131073
215.356812
210.243103
194.551422
169.016724
136.439819
100.973663
66.805481
36.973511
12.900360
-5.403748
-18.846008
-28.689728
-36.114258
-42.088531
-47.233124
-51.836914
-55.942078
-59.512390
-62.743042
-66.051697
-69.761932
-73.979401
-78.463104
-82.782837
-86.607941
-89.915894
-92.923615
-95.817230
-98.481079
-100.316223
-100.501373
-98.358368
-93.540710
-86.319519
-77.530609
-68.295258
-59.672241
-52.144531
-45.382935
-38.238251
-29.265900
-17.396942
-2.492920
14.377960
31.552734
47.373688
60.912201
72.218781
82.116211
91.779694
102.208191
113.780426
126.009644
137.524139
146.277130
149.969299
146.767822
135.849670
117.650391
93.725311
66.177612
37.168976
8.560211
-18.243225
-42.217041
-62.593323
-78.788330
-90.373596
-97.062256
-98.750702
-95.659241
-88.367004
-77.928436
-65.773285
-53.336151
-41.922638
-32.455627
-25.627930
-21.922211
-21.679688
-24.858826
-30.961060
-38.907990
-47.271210
-54.747070
-60.605560
-64.779846
-67.753998
-70.191345
-72.465286
-74.528381
-75.899673
-75.940308
-74.118362
-70.267761
-64.675690
-57.902008
-50.682632
-43.635391
-37.141846
-31.387527
-26.220688
-21.199005
-15.456177
-7.776230
3.009384
17.449158
34.942886
54.019493
72.710892
89.424927
103.543205
115.217514
124.734756
131.810730
135.400925
134.193756
127.288963
114.797897
97.625061
77.066589
54.084446
29.137772
2.594881
-24.968498
-52.266495
-77.489845
-98.623116
-113.803070
-121.843109
-122.493172
-116.525055
-105.570343
-91.683708
-76.720016
-61.772488
-47.162003
-32.593491
-17.756020
-2.772202
11.917946
25.590752
37.496971
47.039490
53.743546
57.179062
57.127914
53.748001
47.664581
39.896820
31.662842
24.038712
17.860565
13.513031
10.836685
9.250061
7.877411
6.010895
3.528351
1.080994
-0.216690
0.719116
4.252670
9.873474
16.658081
23.840851
31.289459
39.632568
49.809052
62.538803
77.990097
95.554001
113.867508
130.946899
144.267822
151.270599
150.149689
140.411072
123.226318
101.071198
76.839508
52.902405
30.571594
10.155396
-8.607483
-25.896729
-41.565063
-55.191833
-66.267487
-74.510223
-79.913727
-82.648621
-82.981750
-81.068420
-77.015656
-70.921967
-62.982635
-53.652740
-43.696838
-34.119263
-25.878387
-19.649445
-15.623596
-13.510437
-12.701416
-12.493683
-12.275085
-11.572815
-10.141663
-7.936859
-5.127594
-1.981354
1.287933
4.699219
8.656036
13.879852
21.040985
30.401886
41.550018
53.409210
64.597260
74.028625
81.290131
86.858856
91.849945
97.706329
105.570618
115.864716
128.066376
140.585144
151.166199
157.362366
157.222198
149.881653
135.801056
116.693115
94.956909
72.833710
51.679138
31.625397
11.857513
-8.748962
-30.771606
-53.675751
-75.964020
-95.611542
-110.873199
-120.741547
-125.036530
-124.231445
-119.187378
-111.011078
-101.006134
-90.677490
-81.411591
-74.115265
-69.054260
-65.697205
-63.154449
-60.420776
-56.664825
-51.498230
-44.990936
-37.744171
-30.705383
-24.888580
-20.979279
-18.965607
-18.136169
-17.340393
-15.490265
-12.023590
-6.832047
-0.264847
7.073120
14.596970
21.722885
28.040466
33.381256
37.950394
42.249161
46.875473
52.244812
58.388702
65.223145
72.588943
80.524933
89.202591
98.735840
109.006210
119.618881
130.055969
139.690338
147.692993
152.940781
153.918915
149.110672
137.491867
119.073196
95.094147
67.699615
39.300293
11.912674
-13.281372
-35.835632
-55.721054
-72.951248
-87.443726
-98.972061
-107.352448
-112.568069
-114.743301
-114.050705
-110.740906
-105.155968
-97.891533
-89.896736
-82.402824
-76.663574
-73.569771
-73.329979
-75.436646
-78.885651
-82.629929
-85.789345
-87.868637
-88.586555
-87.775742
-85.262215
-80.982216
-75.049683
-67.804230
-59.680908
-51.045433
-42.137062
-33.083298
-23.966164
-14.925667
-6.085358
2.511703
10.872814
19.113884
27.366344
35.767708
44.639988
54.368717
65.389389
78.040359
92.532394
108.872086
126.964249
146.489990
166.592346
185.637115
201.148117
210.200623
210.253769
199.986069
179.734131
151.265106
117.287994
80.604172
43.679543
8.506032
-23.503841
-51.339458
-74.472038
-92.777153
-106.312119
-115.248245
-119.909767
-120.834892
-118.845932
-115.093292
-110.720840
-106.511391
-102.864273
-99.754242
-97.044807
-94.659454
-92.512085
-90.510300
-88.547981
-86.568970
-84.696312
-83.231270
-82.370346
-81.952965
-81.415558
-79.885483
-76.592560
-71.093163
-63.207775
-52.987148
-40.699123
-26.818317
-12.204338
1.979897
14.620117
25.024536
33.107925
39.507851
45.140121
50.907730
57.663399
66.033173
76.386047
88.741150
102.753105
117.718651
132.807373
147.171509
159.795822
169.379059
174.148895
172.219727
162.349304
144.419876
119.657944
90.127289
57.937859
24.558960
-9.317757
-43.392075
-77.197845
-109.798836
-139.884796
-166.223465
-187.883041
-204.442856
-215.972336
-222.786758
-225.509430
-224.959396
-222.080048
-217.723679
-212.536896
-206.889633
-200.860168
-194.423172
-187.313583
-179.099182
-169.158356
-156.816589
-141.548355
-123.188576
-102.050781
-78.900635
-54.758461
-30.684589
-7.539440
14.142019
34.219631
52.664242
69.262253
83.303268
93.653221
99.001640
98.424377
91.922119
80.427032
65.717743
49.859863
34.814240
22.201660
13.224197
8.622849
8.604797
12.841690
20.583099
30.945847
43.370880
57.747681
74.344894
93.379028
114.437210
136.284546
156.709198
172.802856
181.481445
180.089630
167.037140
142.269867
107.351105
65.089142
18.941254
-27.824921
-72.664093
-113.927948
-150.639526
-182.254486
-208.387695
-228.636322
-242.689301
-250.228119
-251.043488
-245.165192
-232.834778
-214.509918
-190.891479
-162.725250
-130.855499
-96.433838
-60.967804
-26.274200
5.847443
34.173462
58.399628
79.097900
97.288879
113.794678
128.930603
142.597351
154.567505
164.756775
173.283203
180.250183
185.568542
189.062073
190.697693
190.809204
190.177429
189.809875
190.581970
193.061157
197.194763
202.388184
207.522278
211.256348
212.356384
210.258789
205.178101
197.991089
189.835388
181.435486
172.809998
163.462341
152.724426
140.296936
126.390869
111.721375
97.213257
83.779846
72.204773
62.969482
56.209045
51.378418
47.099243
41.389587
32.049622
17.458801
-2.781616
-27.524597
-54.260132
-79.841400
-101.322693
-116.788116
-125.705963
-128.755249
-127.455719
-123.439575
-118.056824
-112.091797
-105.895935
-99.566010
-93.180603
-86.957184
-81.305023
-76.716461
-73.672913
-72.459259
-73.131836
-75.475861
-79.095490
-83.540588
-88.424347
-93.375763
-98.023224
-101.834656
-104.255402
-104.862915
-103.544312
-100.618317
-96.659332
-92.164215
-87.298218
-81.805756
-75.144836
-66.731506
-56.207916
-43.528687
-28.928101
-12.832306
4.257080
21.804199
39.268494
56.061859
71.599670
85.377869
97.033356
106.441406
113.742310
119.264679
123.210968
125.337158
124.870483
120.606384
111.328674
96.436401
76.315552
52.227020
25.926544
-0.879486
-26.856415
-51.039124
-72.593521
-90.774200
-104.850296
-114.400009
-119.458832
-120.488831
-118.241714
-113.541870
-107.184830
-99.837540
-92.095001
-84.363312
-76.817093
-69.488495
-62.176147
-54.671585
-46.771622
-38.291733
-29.125549
-19.344498
-9.281647
0.445282
9.029999
15.830902
20.585632
23.428345
24.810486
25.199677
25.046234
24.902954
25.430328
27.258331
30.785004
35.791901
41.458160
46.773254
51.031738
54.180573
56.838104
59.877075
64.057541
69.851791
77.514282
87.343018
99.717422
114.806885
132.111099
150.132690
166.412735
178.016479
182.378098
178.088379
165.178528
145.185226
120.438309
93.387787
65.927872
39.125778
13.436203
-10.920273
-33.585236
-53.962967
-71.283981
-84.977142
-94.880814
-101.228973
-104.646347
-105.900711
-105.748642
-104.758072
-103.360977
-101.770325
-100.113403
-98.353470
-96.339417
-93.799828
-90.364693
-85.619438
-79.316200
-71.519302
-62.619827
-53.217194
-43.900429
-34.977867
-26.434235
-18.169762
-10.251625
-3.176231
2.282272
5.373741
5.794647
3.923988
0.737503
-2.493790
-4.606133
-4.679874
-2.159435
3.092506
10.896103
20.665730
31.568184
42.826435
53.966629
65.009270
76.302757
88.317017
101.339188
115.275139
129.567413
143.067383
154.116837
160.646255
160.561401
152.376099
135.763260
111.777824
82.551369
50.764084
18.866940
-11.255039
-38.293625
-61.367031
-79.796631
-93.159943
-101.278290
-104.191978
-102.305344
-96.382568
-87.554245
-77.272736
-67.144417
-58.509743
-52.075172
-47.818428
-45.215210
-43.688164
-42.925346
-43.010590
-44.128983
-46.316559
-49.205765
-52.176971
-54.641647
-56.231140
-56.914398
-56.986038
-56.839462
-56.776901
-56.993439
-57.289413
-57.269226
-56.568802
-55.126434
-53.378754
-52.204468
-52.500259
-54.739105
-58.746460
-63.640121
-68.239944
-71.408813
-72.348251
-70.714310
-66.725037
-61.108658
-54.863586
-49.091019
-44.470352
-40.967468
-37.824951
-33.763657
-27.543091
-18.467438
-6.666397
6.827072
20.126167
30.832367
36.594566
35.629875
27.514023
13.547363
-3.602554
-20.504959
-34.184135
-42.851463
-45.966881
-44.026085
-38.000015
-28.961887
-18.014023
-6.366463
4.762348
14.450211
22.163773
27.962547
32.239063
35.344467
37.563446
38.823975
38.780178
36.922096
32.660320
25.571423
15.652048
3.515804
-9.687178
-22.531124
-33.764946
-42.779053
-49.445072
-54.058525
-57.083138
-58.832451
-59.609055
-59.672684
-59.276733
-58.551872
-57.388557
-55.354179
-51.877975
-46.480804
-38.774017
-28.677429
-16.361664
-2.170410
13.418533
29.913742
46.944916
64.387512
82.311569
100.981598
120.659744
141.319870
162.521210
183.172058
201.482559
215.207672
222.114319
220.628326
210.454666
192.750031
169.821106
144.461853
119.150665
95.561752
74.507538
56.218384
40.642059
27.715759
17.322830
9.203812
2.927231
-2.010223
-6.143311
-9.883545
-13.522781
-17.293365
-21.170929
-25.027603
-28.701309
-32.150482
-35.556076
-39.268066
-43.474869
-48.006012
-52.179138
-54.998932
-55.528038
-53.267120
-48.202370
-40.707008
-31.192726
-19.946358
-6.993561
7.645477
23.797203
41.047798
58.565689
75.402634
90.627213
103.615616
114.378403
123.368858
131.278320
138.762253
146.184250
153.569229
160.685669
167.001404
171.517944
172.721466
168.685776
157.721451
139.052826
113.361771
82.620041
49.394066
16.011948
-16.043251
-46.005196
-73.422974
-97.786377
-118.429184
-134.832153
-146.914734
-154.979553
-159.547272
-161.154205
-160.298218
-157.586609
-153.971313
-150.688538
-148.846497
-149.183716
-151.664246
-155.725510
-160.430710
-164.674606
-167.419479
-167.839554
-165.465698
-160.437073
-153.470581
-145.661835
-137.960724
-130.769775
-123.681213
-115.796875
-106.178711
-94.184387
-79.713867
-62.962402
-44.134857
-23.351929
-0.653259
23.699188
49.051697
74.281921
98.066742
119.145264
136.605011
150.216248
160.332092
167.749725
173.496582
178.480988
183.246918
187.650726
190.761841
190.868530
185.876709
173.885895
153.881439
126.272430
92.823883
56.210236
19.231903
-15.914398
-47.935547
-76.292969
-100.880280
-121.681427
-138.600464
-151.522583
-160.306091
-164.831940
-164.932953
-160.448090
-151.347595
-137.933289
-121.070648
-102.129913
-82.778290
-64.630188
-48.742279
-35.465210
-24.367523
-14.477539
-4.760986
5.432129
16.005829
26.120758
34.334503
39.175842
39.655853
35.575073
27.715576
17.518707
6.832336
-2.529510
-9.255432
-12.777100
-13.405548
-12.133453
-10.255737
-8.883301
-8.506592
-8.907928
-9.241516
-8.400787
-5.420929
0.288971
8.732330
19.447449
31.686249
44.771484
58.413055
72.878876
88.940796
107.316376
128.159668
150.486115
172.117554
190.210449
201.944122
205.147003
198.664917
182.354156
157.008850
124.198151
86.233490
45.925934
6.208862
-30.417847
-62.351135
-89.008423
-110.653259
-128.019653
-141.968536
-153.176666
-162.196503
-169.373260
-174.888763
-178.818207
-181.049988
-181.530121
-180.360321
-177.754211
-174.074524
-169.835999
-165.525818
-161.530212
-157.957916
-154.515900
-150.510284
-145.073578
-137.397339
-127.070892
-114.173096
-99.081177
-82.301056
-64.337799
-45.633667
-26.537048
-7.285187
12.198303
32.442627
54.232910
78.348816
105.060028
133.765137
163.145630
191.294586
216.201080
236.130737
249.854828
256.924683
257.734741
253.335358
244.861450
233.036072
217.659180
197.597595
171.441498
138.283569
98.371857
53.194641
5.053986
-43.598602
-90.676270
-134.712021
-174.734436
-210.088608
-240.426941
-265.735992
-286.109680
-301.918091
-313.609467
-321.676605
-326.644165
-329.049011
-329.304810
-327.516052
-323.329163
-315.886780
-304.008026
-286.515869
-262.496185
-231.692505
-194.723846
-153.075714
-108.855804
-64.448143
-21.827301
17.677910
53.515709
85.772919
114.852119
141.057053
164.476471
184.957382
202.283096
216.589783
228.188141
237.627609
245.799271
253.477356
260.977570
267.857300
273.102966
275.542419
275.095825
272.610352
269.765686
268.663330
270.765533
276.276428
284.200012
292.598145
298.898376
300.427155
293.806458
275.921021
245.612915
204.816162
158.768677
114.576714
78.541687
50.298508
27.572571
5.642273
-20.029793
-50.694527
-83.482834
-113.495720
-136.782318
-152.350067
-161.738968
-166.899261
-169.210876
-168.665985
-164.324768
-155.613998
-143.175980
-128.894104
-115.350266
-104.587494
-97.048080
-92.016609
-87.827461
-82.616943
-75.228607
-65.724968
-55.300468
-45.690536
-38.345325
-33.602375
-30.881302
-28.887890
-26.139488
-21.695614
-15.522861
-8.511234
-2.016968
2.815102
5.559967
6.635307
6.968834
7.725628
9.737892
13.290405
18.090836
23.434235
28.300591
31.563271
32.259811
29.718483
24.152985
16.812729
9.654442
4.632965
2.860199
4.006966
6.322021
7.332253
4.640495
-2.872528
-14.643021
-28.632889
-42.009987
-52.187263
-57.649429
-58.537659
-55.541504
-50.103889
-43.544014
-36.705521
-29.980194
-23.591316
-17.800484
-12.966927
-9.257965
-6.389709
-3.880630
-1.101997
2.158081
5.531311
8.312141
9.663147
9.057953
6.537804
2.765671
-1.346977
-4.733704
-6.545502
-6.434433
-4.656448
-1.932098
0.844833
3.142815
4.780319
5.818665
6.381065
6.387352
5.596214
3.861511
1.378990
-1.364868
-3.577866
-4.714722
-4.603935
-3.497482
-1.948891
-0.593590
0.115501
0.034615
-0.828842
-2.145908
-3.537144
-4.644470
-5.231274
-5.239567
-4.856506
-4.372860
-4.487736
-6.222343
-10.586636
-18.082283
-28.317383
-39.631485
-49.569080
-55.875885
-56.802368
-52.108837
-42.856388
-30.726059
-17.449646
-4.356503
7.673761
18.161844
26.757570
33.156319
37.414963
39.750278
40.615776
40.421093
39.481216
37.983974
35.836380
32.697803
28.156754
22.092651
14.837772
7.476302
1.451097
-1.998492
-2.301994
0.206614
4.465080
9.307579
13.775226
17.433943
20.300217
22.776918
25.189617
27.986118
31.567507
35.998543
40.984489
45.753597
49.159508
50.290363
48.675419
44.181431
37.369484
29.307407
21.278803
14.494749
9.764088
7.258429
6.639250
7.342142
8.353951
9.459563
10.979012
13.553379
17.626902
22.947489
28.459322
32.645149
34.082909
31.218506
23.457762
11.128448
-4.728251
-22.623589
-41.220272
-59.710327
-78.349068
-93.689453
-104.259155
-109.352829
-109.110580
-104.447647
-96.869408
-88.075600
-79.485146
-71.727722
-64.506828
-57.621941
-50.685081
-43.620895
-36.803150
-30.822659
-26.232916
-23.194918
-21.413734
-20.225561
-19.361019
-18.426220
-17.058319
-14.914610
-11.756975
-7.448955
-2.026861
4.418720
11.801052
19.713179
27.732868
35.446640
42.469208
48.775551
54.708473
60.975929
68.383537
77.590096
88.712685
101.574829
115.965141
131.787537
149.205292
168.570984
190.190277
214.159958
240.116058
267.052826
293.198792
316.047699
332.461395
339.059662
332.750122
311.345337
274.173584
222.377975
158.964035
88.462685
16.128120
-53.109879
-115.611755
-169.424133
-214.300430
-250.942825
-280.336609
-303.207123
-319.829285
-330.300537
-334.743500
-333.487549
-327.061768
-316.195374
-301.813568
-285.055603
-267.269165
-249.814697
-233.730591
-219.608948
-207.361816
-196.354202
-185.611801
-174.014374
-160.691299
-145.365845
-128.549942
-111.425781
-95.545624
-82.161469
-71.729645
-63.927612
-57.870209
-52.655945
-47.755310
-42.959518
-38.232529
-33.534492
-28.711891
-23.695175
-18.591217
-13.734039
-9.444019
-5.899094
-2.934669
-0.099142
3.302362
8.279010
16.027485
27.690712
44.066170
65.039040
89.251663
114.094955
136.172821
151.936188
158.661621
155.027313
141.480011
120.227264
94.481445
67.494781
41.777573
18.578781
-1.989243
-20.329285
-36.734146
-51.075134
-62.874771
-71.644821
-77.031815
-78.743134
-76.366150
-69.480988
-57.861023
-42.064880
-23.578827
-4.622375
12.536011
26.289062
36.125641
42.500488
46.440857
49.099670
51.305634
53.380615
55.195221
56.188629
55.640533
52.968475
48.011414
41.143585
33.405975
26.079620
20.438141
17.376556
17.088837
19.037964
22.176910
25.481995
28.320618
30.842590
33.868774
38.478333
45.467957
54.945129
66.348694
78.786316
91.398132
103.641235
115.432678
127.101318
139.303101
152.851562
168.323669
185.431152
202.606262
216.967468
224.956726
223.536621
211.229980
188.652039
158.194580
123.186584
86.835815
51.649231
19.345337
-9.041382
-32.802734
-51.638367
-65.634277
-75.181458
-80.997437
-83.941284
-84.846741
-84.441833
-83.271729
-81.644775
-79.628296
-77.106140
-73.940063
-70.159058
-65.961121
-61.625061
-57.316284
-53.110596
-48.940491
-44.816406
-40.949432
-37.742493
-35.584503
-34.677551
-34.910156
-35.839722
-36.804810
-36.937988
-35.449799
-31.857910
-26.184235
-18.997711
-11.134338
-3.264435
4.499329
12.635254
21.956421
33.065643
46.033417
60.347229
75.179840
89.704803
103.330322
115.863922
127.431580
138.464630
149.651947
161.545807
174.242065
186.823639
197.330261
203.212738
202.069550
192.353088
173.819153
147.426514
115.026917
78.939423
41.627747
5.387787
-27.845886
-56.777985
-80.810913
-99.856781
-114.177185
-124.234985
-130.588226
-133.867706
-134.821777
-134.105927
-132.108948
-128.878357
-124.304443
-118.478882
-111.956284
-105.653824
-100.575470
-97.461472
-96.450226
-97.150772
-98.845505
-100.808197
-102.423386
-103.304626
-103.172577
-101.802643
-99.037750
-94.789368
-89.145294
-82.366913
-74.797318
-66.683090
-58.034393
-48.559433
-37.743317
-25.109268
-10.370880
6.282806
24.182190
42.413284
59.707184
75.079803
88.152573
99.099045
108.429901
116.925095
125.541122
135.100540
146.044861
157.973389
170.148880
182.035156
193.571136
205.061096
217.214355
230.872040
246.525726
263.882019
280.866333
294.625183
302.420776
301.961395
291.767029
271.954926
244.555359
213.193146
182.020081
152.579224
125.539856
101.320816
79.449791
57.712669
33.280190
4.281586
-29.095306
-64.579132
-102.726974
-142.521133
-180.597580
-213.895309
-242.600327
-269.311584
-296.584961
-325.432495
-354.887756
-388.839600
-427.397064
-464.236145
-490.597076
-501.179504
-495.383820
-475.860870
-447.024261
-414.070374
-390.039825
-382.959137
-391.059235
-407.284882
-426.536224
-446.698639
-466.805969
-486.035980
-453.514313
-353.720490
-219.649780
-98.739624
-12.451752
42.477661
77.358276
101.810089
121.345490
138.253448
144.064713
137.549866
125.973618
119.678764
124.463928
140.589478
165.765808
198.032135
237.590469
281.398956
323.034241
362.952667
403.192505
441.698425
472.412720
488.430817
484.812561
460.302826
413.551422
348.050476
273.362488
200.302948
136.167999
83.775818
42.982430
12.445461
-9.261898
-25.011841
-36.505814
-43.033142
-43.610947
-38.926083
-31.357056
-23.818848
-18.709396
-17.178764
-19.840820
-26.137054
-33.950867
-40.938213
-45.618073
-47.876110
-49.069733
-51.842552
-59.177280
-73.218445
-93.956482
-118.490036
-142.212448
-160.561157
-170.917404
-173.388489
-170.170898
-163.879395
-155.919342
-146.026367
-132.777908
-114.863098
-91.906540
-64.232643
-32.266857
4.125214
45.549442
92.395760
143.781525
197.129303
248.284958
292.262970
324.290253
340.709229
339.541992
320.717804
285.784149
237.451813
179.012833
113.837914
45.266739
-23.243790
-87.998886
-145.269882
-191.769119
-225.433350
-245.994263
-254.881134
-254.699066
-248.385086
-238.514191
-226.887619
-214.542740
-201.970703
-189.136292
-175.711441
-161.186462
-145.155762
-127.618843
-109.009018
-90.322617
-72.895630
-58.003513
-46.458500
-38.340176
-32.855698
-28.592850
-24.007133
-18.037201
-10.530376
-2.072594
6.388088
14.062790
20.634766
26.315964
31.752632
37.901543
45.997711
57.316956
72.577599
91.257431
111.142982
128.596466
139.662491
141.341141
132.505951
114.136322
88.574661
58.687805
27.105804
-3.988419
-32.875412
-58.169632
-79.006195
-95.173477
-107.039871
-115.300720
-120.582703
-123.146866
-122.775681
-119.063309
-111.665192
-100.540436
-86.110168
-69.099670
-50.462891
-31.210052
-12.189240
5.903442
22.513672
37.210663
49.601410
59.279358
65.813080
68.921143
68.610260
65.436584
60.548431
55.606903
52.490631
52.713348
56.954956
64.872131
75.341156
86.966797
98.734192
110.508118
122.965515
137.277466
154.392059
174.514587
196.695190
218.684967
237.161255
248.293976
248.522980
235.397339
208.267944
168.556274
119.403046
65.091553
10.221466
-40.934906
-84.816254
-118.828369
-141.568695
-152.896118
-153.915558
-146.770966
-134.191864
-118.996185
-103.656738
-89.850128
-78.371582
-69.142853
-61.330353
-53.793579
-45.548035
-36.168915
-25.867615
-15.384003
-5.572052
2.829803
9.228790
13.111206
13.949646
11.395020
5.694061
-2.139465
-10.420654
-17.343811
-21.646179
-22.945465
-21.697662
-18.658386
-14.381866
-8.869659
-1.692932
7.724701
19.749084
34.326813
51.077179
69.429413
88.861145
109.153656
130.520508
153.415253
178.049927
203.816986
228.601837
248.717896
259.730133
257.602600
240.043884
207.349670
162.356598
109.719025
54.834320
2.804596
-42.387741
-78.282425
-104.164520
-120.860672
-130.350143
-135.148758
-137.625031
-139.507812
-141.623749
-144.005127
-146.180511
-147.561295
-147.814713
-147.044205
-145.752182
-144.687668
-144.537888
-145.623840
-147.899017
-150.984024
-154.433807
-157.823990
-160.747955
-162.724121
-163.155487
-161.333237
-156.716217
-149.066727
-138.446609
-125.107880
-109.314438
-91.213684
-70.845840
-48.206940
-23.428696
3.173981
30.883881
58.614822
85.020905
108.774460
129.029739
145.582413
158.898071
169.865570
179.482635
188.592499
197.885635
207.834198
218.390335
228.826813
237.376450
241.361450
237.813751
224.305893
199.771271
164.845245
121.703461
73.543015
23.828339
-24.281342
-68.361572
-106.921478
-139.463608
-166.217545
-187.700653
-204.354645
-216.281494
-223.255539
-225.011322
-221.459839
-212.853378
-199.715027
-182.881256
-163.403854
-142.627472
-122.103745
-103.273834
-87.183411
-74.270355
-64.297867
-56.705917
-50.912476
-46.563904
-43.563339
-41.957626
-41.727493
-42.672165
-44.306595
-45.947006
-46.911728
-46.727219
-45.275177
-42.753586
-39.455490
-35.401154
-30.075500
-22.566254
-11.701416
3.408813
23.142944
47.284790
75.130249
105.641022
137.599884
169.725189
200.847260
230.270691
257.972076
284.458160
310.353546
335.582092
358.875153
377.853851
389.816956
392.664185
385.845032
370.478577
349.031525
324.476685
299.697723
277.078369
258.360901
244.589325
235.973053
231.813019
230.405609
229.325516
226.027710
218.358215
204.907593
185.031631
158.586349
125.593369
86.261787
41.042603
-9.148209
-62.877869
-118.523750
-174.687027
-230.439163
-285.212097
-338.363586
-388.607117
-433.666382
-470.598267
-496.392822
-508.972321
-507.739197
-493.802002
-469.549683
-438.004395
-402.033020
-363.905518
-325.124451
-286.593414
-248.927704
-212.880463
-179.369904
-149.357758
-123.253967
-100.444672
-79.152435
-56.884857
-31.316559
-1.409088
31.813385
65.290131
94.805634
116.323944
127.432526
127.962250
119.706055
105.533020
88.083130
68.959076
48.721008
27.422668
5.365997
-16.567719
-37.040924
-54.852478
-69.388489
-80.719482
-89.233948
-95.056091
-97.911926
-97.363342
-93.302277
-86.368805
-78.005768
-70.014221
-63.909790
-60.467957
-59.526093
-60.155807
-60.995865
-60.483475
-57.309296
-50.823059
-41.231613
-29.653336
-17.837250
-7.378723
0.872864
7.215240
12.987381
19.946228
29.465973
42.119690
57.530670
74.605179
91.997498
108.508209
123.270645
135.917694
146.592926
155.861862
164.597717
173.676483
183.574371
194.140381
204.358841
212.436035
216.213730
213.857361
204.439423
188.335220
167.017395
142.370392
116.002419
88.727325
60.722389
32.227119
3.992729
-22.557053
-45.949516
-65.360931
-81.154633
-94.563042
-106.892792
-118.708252
-129.399933
-137.660889
-142.328659
-143.040131
-140.542419
-136.293137
-131.846771
-128.287186
-125.970795
-124.600349
-123.514496
-122.009323
-119.574890
-115.949196
-111.117676
-105.048508
-97.670906
-88.827911
-78.358162
-66.274239
-52.900017
-38.854095
-25.018715
-12.308014
-1.476181
7.187477
13.867752
19.327705
24.566833
30.480194
37.510841
45.520355
54.054192
62.644775
71.108589
79.577225
88.257294
97.283936
106.733063
116.863678
128.305969
141.737488
157.376541
174.273163
190.032104
201.298126
204.689026
197.954651
180.718384
154.607025
122.703941
88.802841
56.429153
28.140537
5.093815
-12.957424
-27.424084
-40.204292
-53.035191
-66.950012
-82.070282
-97.701614
-112.702766
-125.747993
-135.643585
-141.538239
-143.020172
-140.141190
-133.451263
-123.814911
-112.247444
-99.749313
-87.136452
-74.992165
-63.625305
-52.956680
-42.723595
-32.610550
-22.467499
-12.356361
-2.598228
6.464104
14.567665
21.548630
27.270691
31.493271
33.780060
33.778412
31.249428
26.315449
19.348103
11.026779
2.129570
-6.440308
-13.774853
-19.032734
-21.558311
-20.984535
-17.231098
-10.249931
0.009781
13.618134
30.443298
49.796043
70.138824
89.150665
104.021835
112.127579
111.682648
102.308861
85.066772
62.315002
37.016190
11.978157
-10.737610
-30.011360
-45.559528
-57.452690
-65.854256
-70.950684
-72.991989
-72.494774
-70.311028
-67.246216
-63.932457
-60.658150
-57.495865
-54.488094
-51.821350
-49.734814
-48.344757
-47.530430
-46.910828
-46.045296
-44.589447
-42.338791
-39.211643
-35.125362
-30.005873
-23.732525
-16.385181
-8.136016
0.685968
9.706238
18.664516
27.474333
36.209507
45.047878
54.071182
63.144619
71.849045
79.575073
85.826515
90.493927
93.919449
96.797462
99.852661
103.545128
107.919456
112.792534
117.818924
122.613655
126.861298
130.260330
132.654388
134.166183
135.243195
136.578812
138.747238
141.859528
145.223373
147.402527
146.325119
139.750504
125.694954
103.086700
72.046921
34.233448
-7.358715
-48.981583
-86.931862
-118.435982
-142.145569
-158.080292
-167.237305
-171.050751
-170.856735
-167.681091
-162.264862
-155.117310
-146.701828
-137.478485
-127.865364
-118.321808
-109.265961
-100.984436
-93.628204
-87.095627
-81.172562
-75.459885
-69.615585
-63.439911
-56.928131
-50.362183
-44.133606
-38.740524
-34.686646
-32.243317
-31.408249
-31.817703
-32.932526
-34.188187
-35.250229
-36.099930
-37.012177
-38.318573
-40.192474
-42.541412
-45.038498
-47.177094
-48.483871
-48.541275
-46.993385
-43.528206
-37.950668
-30.297325
-20.930359
-10.563454
0.065880
10.495117
20.681465
31.167336
42.630127
55.595886
70.096581
85.444183
100.341515
113.026588
121.556778
124.156448
119.742172
108.254807
90.821411
69.709373
47.265575
25.035610
3.390888
-18.200377
-40.435215
-63.357338
-85.742348
-105.140045
-118.443718
-123.431686
-119.714905
-108.767914
-93.438950
-77.031342
-62.458889
-51.619591
-45.007683
-41.302044
-38.713627
-35.796482
-31.706360
-26.252182
-19.912830
-13.698112
-8.583473
-5.028259
-1.474701
2.790924
6.714058
8.223289
5.608490
-2.028862
-14.758209
-31.672638
-51.095306
-68.092819
-80.027588
-87.799454
-93.332764
-96.853226
-96.646439
-90.356384
-76.003616
-52.616440
-15.899017
33.618515
89.708267
145.077377
195.846298
241.766006
284.221680
324.749268
364.255798
408.513367
457.204681
502.156250
532.898804
542.542114
528.727722
491.948608
434.418243
322.092590
158.446030
-16.212204
-158.933868
-253.280029
-304.399170
-324.095276
-323.483307
-311.124023
-292.759277
-265.721069
-230.349152
-192.737335
-159.851868
-136.127808
-122.508728
-117.811966
-119.310875
-123.277443
-121.369949
-109.863342
-91.641197
-71.324570
-53.161263
-39.433990
-30.653046
-26.138062
-24.247124
-20.096161
-11.382355
0.630051
15.261032
31.762012
50.108261
69.922989
89.396996
105.027237
113.936859
113.140137
90.911057
52.654884
10.510799
-23.824455
-44.147800
-50.851467
-48.778412
-43.207493
-37.954868
-34.542114
-31.133343
-27.095566
-23.146439
-20.639244
-20.555149
-22.868641
-26.620750
-30.618954
-33.762329
-34.447529
-33.165741
-31.332825
-30.271004
-30.609890
-32.182869
-34.377827
-36.510216
-38.147568
-38.592934
-38.658901
-39.779396
-42.877670
-47.434868
-51.311127
-51.377491
-45.017395
-31.498722
-12.383575
8.219643
25.592026
36.440361
40.161812
38.622253
34.740356
30.987419
28.422516
26.949577
25.782288
24.438545
23.126007
22.381218
22.556992
23.423370
24.178627
23.994606
22.441002
19.795914
16.903442
14.744820
13.944557
14.636147
16.658119
19.190926
21.591316
23.446793
24.398712
24.093208
22.063362
17.836082
11.181610
2.368599
-7.741997
-17.693253
-25.942307
-31.314888
-33.360672
-32.393448
-29.293243
-25.033554
-20.349289
-15.707954
-11.240234
-7.045021
-3.225983
0.187988
3.201340
5.947708
8.626808
11.355995
14.013893
16.374222
18.168213
19.319077
19.985069
20.493080
21.162331
22.249489
23.889801
26.144829
29.047882
32.612785
36.821815
41.559547
46.516380
51.330017
55.655365
59.321220
62.421761
65.330399
68.440247
72.096596
76.302322
80.634293
84.220673
86.101120
85.400307
81.608238
75.095840
66.037544
55.106918
43.203857
31.167213
19.641823
8.833797
-1.512863
-12.188831
-24.150013
-38.144844
-54.040051
-70.645630
-85.946060
-97.746307
-104.420403
-105.512817
-101.730545
-94.510506
-85.421196
-75.643837
-65.921440
-56.708324
-48.446602
-41.569725
-36.459557
-33.248672
-31.684996
-31.280376
-31.406132
-31.545288
-31.504553
-31.422516
-31.508232
-31.912912
-32.467720
-32.607166
-31.563461
-28.537964
-23.181551
-15.736300
-7.031109
1.824886
9.847485
16.486374
21.736252
25.948261
29.502834
32.633541
35.346439
37.591404
39.463749
41.221317
43.228809
45.775627
48.847805
52.309509
55.894035
59.465233
62.998962
66.593613
70.321373
74.260979
78.541817
83.506279
89.621025
97.384491
107.078857
118.332710
129.781128
139.119812
143.427383
139.983658
127.005760
104.346176
73.670273
37.983459
0.901428
-34.042191
-63.924286
-86.650894
-100.983704
-106.574677
-104.129684
-95.432434
-83.073181
-69.824905
-57.942719
-48.531097
-41.560623
-36.316406
-32.080719
-28.668091
-26.496002
-26.311478
-28.817749
-34.324219
-42.698242
-53.427521
-65.674347
-78.416199
-90.599274
-101.213928
-109.576172
-115.350128
-118.549927
-119.472473
-118.575714
-116.333282
-113.213257
-109.598877
-105.690491
-101.483337
-96.794464
-91.326233
-84.877472
-77.341095
-68.764709
-59.222504
-48.787170
-37.455170
-25.238525
-12.208038
1.518341
15.801727
30.497772
45.514069
60.777588
76.255005
91.889404
107.650635
123.531097
139.526703
155.545441
171.500305
187.209473
202.333466
216.131958
227.411743
234.482819
235.439178
228.705261
213.538788
190.242157
160.106781
124.997620
87.050873
48.290405
10.609650
-24.269531
-54.926392
-80.319733
-99.974243
-113.990448
-123.020477
-128.186798
-130.786865
-132.052826
-132.858856
-133.421753
-133.319183
-131.916504
-128.921539
-124.812408
-120.844635
-118.581116
-119.150391
-122.630859
-127.967712
-133.418823
-137.175720
-137.852173
-134.746643
-127.789764
-117.479034
-104.718445
-90.677124
-76.622559
-63.534637
-51.960022
-41.932831
-33.122711
-24.957581
-16.830200
-8.102661
1.715149
12.976562
25.720795
39.619263
54.140228
68.641327
82.619812
95.808289
108.227234
120.039429
131.419098
142.312622
152.545837
161.819641
169.915802
176.858765
182.882416
188.322693
193.190796
196.978180
198.609253
196.623199
189.696625
177.053131
158.509552
134.381775
105.299835
72.145020
36.174316
-0.989471
-37.345947
-70.768677
-99.427490
-121.909851
-137.328461
-145.311249
-145.975037
-139.951416
-128.370544
-112.829285
-95.248840
-77.414124
-60.664612
-45.876221
-33.559692
-24.098083
-17.798828
-14.885193
-15.369080
-19.186584
-26.197876
-36.050293
-48.125610
-61.420227
-74.653625
-86.380615
-95.257446
-100.274780
-101.162292
-98.055847
-91.162109
-80.787720
-67.396790
-51.767944
-35.076965
-18.605164
-3.327820
9.516174
19.480469
27.043030
33.483765
40.100159
47.535828
55.533813
63.300232
70.132263
74.129150
74.429749
71.786377
68.398193
66.868591
68.760315
73.655212
79.334839
82.639954
77.742798
60.388611
29.483215
-12.224792
-59.516846
-107.077637
-151.348511
-191.021545
-226.751770
-264.323120
-309.549072
-365.693542
-431.473755
-501.298706
-567.522583
-623.195801
-664.203552
-666.220886
-615.555786
-512.821167
-375.067444
-227.415863
-90.772614
24.288177
115.772461
185.875916
237.947632
271.874084
288.345459
290.265533
282.978607
272.541748
263.404724
257.250153
253.612579
251.412598
247.211700
238.845123
226.243042
211.487030
197.487274
186.243607
178.121490
172.276199
167.713562
162.241333
154.587234
144.847076
134.503922
125.627380
119.703308
116.800323
115.499100
113.504501
107.686508
96.129257
79.115814
59.297104
40.563965
26.186493
17.326591
12.856415
10.110741
6.055298
-1.171883
-11.756096
-24.388695
-37.126717
-48.211205
-56.494125
-61.472000
-63.121208
-61.746773
-57.851990
-52.152405
-45.331306
-38.030640
-30.797348
-24.093933
-18.292145
-13.588493
-10.147316
-7.367065
-4.766106
-2.073524
0.640381
2.906601
4.100899
3.852692
2.212959
-0.174667
-2.338165
-3.424934
-2.925728
-0.994820
1.650536
3.992203
5.033340
4.241898
1.697647
-1.908310
-5.576332
-8.232704
-9.126282
-8.109993
-5.548904
-2.296593
0.676735
2.709579
3.652962
3.912724
4.273548
5.478855
7.793827
10.884762
13.842243
15.646305
15.573315
13.501102
9.930195
5.758350
2.013165
-0.350075
-0.732433
0.956245
4.157616
7.659794
9.946774
9.671501
6.281319
0.207798
-7.295528
-14.521400
-20.010559
-22.853287
-22.908213
-20.570868
-16.478804
-11.245077
-5.502653
0.242638
5.478054
9.858635
13.182198
15.544947
17.210085
18.537128
19.785854
21.100681
22.271280
22.823582
22.208813
20.082592
16.551033
12.207542
7.835140
4.087556
1.349263
-0.436423
-1.547642
-2.210510
-2.575120
-2.744619
-3.023146
-3.849592
-5.643527
-8.138348
-10.625696
-12.091576
-11.639673
-9.005323
-4.832899
-0.346510
3.125495
4.747980
5.053311
5.226347
6.738400
10.537159
16.594879
23.875538
30.803967
36.043804
39.048122
40.849098
42.985016
46.850021
53.008537
60.978928
69.401978
76.695503
81.799225
80.697945
71.942673
55.409225
32.347954
5.075252
-23.554943
-50.771423
-74.451561
-93.498520
-107.789024
-117.432144
-123.154129
-125.938141
-126.746132
-126.236427
-124.707993
-122.118011
-118.243149
-112.933624
-105.915718
-97.431610
-88.198059
-79.271873
-71.857628
-66.953659
-64.965828
-65.496925
-67.349686
-68.531403
-67.186630
-62.119133
-53.133224
-40.971413
-26.867653
-12.108101
2.236794
15.484047
27.354065
37.820358
46.987083
55.129372
62.564354
69.599548
76.344330
82.794189
88.888077
94.698868
100.512833
106.754349
113.931900
122.366119
131.928162
141.770859
150.213654
154.906204
153.304321
143.413818
124.540421
97.680649
65.338882
30.885941
-2.311752
-31.561478
-55.243607
-72.662552
-83.804779
-89.072784
-89.178925
-85.100342
-78.051529
-69.366852
-60.300842
-51.804657
-44.422516
-38.260132
-33.179993
-28.948380
-25.380157
-22.379440
-19.889130
-17.779404
-15.854767
-13.864944
-11.622360
-9.052704
-6.213318
-3.118896
0.340408
4.465103
9.660309
16.209061
24.138062
33.190918
42.986374
53.305206
64.188812
75.948853
89.041214
103.822388
120.428024
138.698944
158.031433
177.265747
194.581757
207.572372
213.588593
210.443787
197.018616
173.716827
142.545975
106.516312
68.952316
32.740646
-0.163605
-28.781250
-52.848557
-72.449905
-87.767517
-98.941177
-106.275833
-110.318634
-111.899261
-111.942657
-111.124023
-109.663071
-107.399628
-104.018524
-99.496002
-94.276611
-89.182198
-85.049706
-82.307419
-80.808777
-79.823845
-78.425545
-75.863686
-71.802956
-66.452499
-60.318733
-53.873627
-47.207016
-39.783127
-30.731483
-19.280190
-5.347618
10.261475
25.987503
40.230934
51.982849
61.224792
68.888153
76.346565
84.844101
95.104279
107.167328
120.337730
133.267258
144.056244
150.409927
150.124649
141.677277
124.714417
100.259384
70.528938
38.270203
6.291677
-23.221277
-48.994331
-70.654922
-88.570168
-103.434547
-115.840515
-126.016296
-133.724716
-138.443741
-139.716293
-137.468597
-132.090729
-124.424141
-115.461967
-106.124313
-97.150017
-89.123848
-82.479843
-77.528534
-74.272385
-72.222565
-70.403862
-67.623268
-62.833824
-55.617210
-46.382107
-36.203205
-26.448164
-18.284756
-12.305670
-8.436982
-6.033350
-4.102107
-1.562851
2.586246
9.115587
18.473583
30.767641
45.705746
62.776379
81.242424
100.378471
119.614632
138.766403
158.148666
178.479462
200.480911
224.345398
249.229919
272.991089
292.507172
304.399902
306.002777
296.128113
275.355927
245.801819
210.537933
172.974533
136.279999
103.011459
74.744705
51.886078
33.780602
19.203583
7.058365
-3.013580
-10.433624
-14.205368
-13.770660
-9.957825
-5.346069
-3.806488
-9.453049
-25.413422
-52.853180
-90.601151
-135.408737
-182.634949
-227.140839
-264.321991
-290.992432
-305.953766
-310.071289
-305.801239
-296.448853
-285.286102
-274.805725
-266.325134
-259.847778
-254.293182
-247.917267
-238.875000
-225.661804
-207.562592
-184.809326
-158.422058
-129.931030
-100.864441
-72.312012
-44.520538
-16.743347
12.553284
45.086182
81.754242
121.604309
161.282043
195.365356
217.780884
223.661011
211.016602
181.411011
139.364899
90.807434
41.353149
-4.852539
-45.463715
-79.418701
-106.336273
-125.945038
-138.061096
-142.820068
-140.983612
-134.075195
-124.128586
-113.274048
-103.126312
-94.332657
-86.516663
-78.554382
-69.121155
-57.337051
-42.997040
-26.658646
-9.408966
7.538498
23.103073
36.524765
47.363129
55.399948
60.488174
62.472092
61.257935
56.930168
50.083488
41.885109
33.992561
28.149445
25.703377
27.156929
32.085594
39.419067
47.920853
56.678421
65.395752
74.364594
84.435715
96.647690
111.876877
130.466187
151.736221
173.669098
192.987518
205.696136
208.116180
198.102753
175.924545
144.447388
108.331406
72.535927
40.747990
14.369816
-7.432461
-26.912601
-46.328663
-66.937248
-88.619919
-110.180504
-130.003998
-146.611893
-158.870682
-165.990204
-167.546295
-163.630661
-155.048920
-143.460358
-131.098907
-120.187454
-112.258774
-107.658157
-105.584518
-104.510757
-102.763245
-99.085381
-92.899429
-84.271515
-73.679901
-61.794228
-49.411991
-37.451141
-26.950264
-18.909470
-13.988052
-12.135498
-12.323128
-12.729515
-11.245148
-6.101089
3.626717
17.802551
35.418533
54.983032
74.884277
93.758331
110.836517
126.141281
140.636932
155.993515
173.832169
194.860840
218.055679
240.581848
258.440094
267.687744
265.740234
252.104309
228.250992
196.814987
160.658188
122.172897
83.103104
44.759369
8.435028
-24.515137
-52.708191
-75.098251
-91.268066
-101.427200
-106.261429
-106.563461
-102.879471
-95.594543
-85.254959
-72.906982
-60.172318
-49.026184
-41.108383
-37.154037
-36.795670
-38.847519
-41.883621
-44.860245
-47.289337
-49.093765
-50.300339
-50.889267
-50.749374
-49.997299
-48.797958
-47.495697
-46.424347
-45.647385
-44.772644
-43.095856
-39.779739
-34.246872
-26.323517
-16.133667
-4.156403
8.996475
22.929047
37.733574
53.904572
71.975609
92.078751
113.554840
135.285645
155.382339
171.340256
180.523315
180.811920
171.023285
151.219788
122.860939
88.568047
52.463737
18.153893
-12.803978
-40.520226
-65.944931
-89.924095
-112.810623
-134.329514
-153.737274
-168.295303
-175.964020
-176.948486
-172.646088
-164.324875
-152.892059
-139.409607
-125.426186
-112.844772
-100.447876
-87.114899
-73.847359
-62.063446
-51.943192
-42.300964
-31.718948
-19.304184
-4.936676
14.660995
41.353195
72.865189
105.717850
137.990601
170.042664
203.538284
240.290878
257.613922
243.068832
206.386810
167.162262
136.798660
116.017143
101.215828
88.657127
75.877159
61.875458
50.611252
48.742058
52.727295
57.482075
58.445026
52.709702
38.925003
17.306137
-10.664673
-39.804249
-65.710159
-88.358788
-108.521774
-125.890770
-139.864700
-150.377609
-158.249390
-164.913300
-169.916153
-172.681641
-173.957260
-174.142700
-173.000565
-169.760712
-163.611649
-154.108963
-141.285995
-124.874146
-105.388718
-84.915009
-65.620773
-49.265781
-36.644718
-27.522823
-20.727337
-14.640217
-7.424210
2.099010
13.672188
26.093739
37.491615
46.009636
50.629375
51.437019
49.527218
46.439152
43.641815
42.021782
42.156891
44.368629
48.987175
56.425858
66.955215
80.571571
96.858162
115.144852
134.585449
154.231567
172.964340
189.333527
201.519592
207.431824
205.044281
192.763580
169.944763
137.153885
96.502586
51.213219
5.057953
-38.516014
-77.086174
-109.453201
-135.350220
-154.902695
-168.136002
-174.939819
-175.317383
-169.797012
-159.522583
-146.083344
-131.048904
-115.596489
-100.317368
-85.429794
-71.087959
-57.663422
-45.757645
-35.931801
-28.424812
-22.919273
-18.473236
-13.838676
-7.904427
-0.134872
9.194504
19.126480
28.394119
35.862015
40.807976
43.026894
42.712708
40.273323
36.223015
31.118233
25.448341
19.719223
14.572472
10.915298
10.109978
13.787254
23.453056
39.870506
62.368530
88.631470
114.884521
136.678955
149.964859
152.183533
143.072998
124.610107
100.413033
74.566010
50.384972
29.625603
12.374611
-2.266068
-15.345222
-27.482124
-38.769875
-49.178398
-58.919388
-68.634369
-78.937897
-90.027290
-101.369987
-111.828621
-120.171928
-125.568336
-127.724022
-126.735306
-122.813492
-116.055557
-106.445679
-94.146889
-79.862442
-64.824806
-50.672920
-38.805252
-29.769661
-22.984398
-16.729881
-8.976013
1.639282
15.045372
29.608551
42.754166
52.071304
56.316879
55.827446
52.244949
47.689125
43.891296
41.934608
42.230209
44.868736
49.871361
57.391602
67.519608
80.207733
95.201851
112.090248
130.518784
149.820374
168.900635
186.141129
199.370438
206.032166
203.730835
190.877075
167.288666
134.668732
96.122688
55.299755
15.501102
-20.875351
-52.703751
-79.845871
-102.828140
-122.296463
-138.546249
-151.954453
-163.050461
-172.321671
-179.872208
-185.530838
-188.852325
-189.531189
-187.465027
-181.935547
-173.174408
-162.390945
-151.144653
-140.353821
-130.199188
-120.016739
-108.903114
-95.952469
-79.148438
-58.613976
-36.773453
-16.693838
0.329487
14.731678
28.491796
43.217941
59.948044
81.368523
107.440239
135.423813
161.760742
185.346207
206.589203
227.131470
247.400208
267.326813
289.716705
314.474823
337.918182
354.159485
359.507751
351.691742
330.250702
294.276306
225.848175
130.423981
33.650230
-41.472786
-90.490097
-118.294823
-138.769287
-155.864456
-171.368637
-186.995529
-202.305573
-221.247391
-239.354950
-257.612488
-274.489624
-287.027710
-291.744995
-288.078888
-277.445862
-259.805756
-237.102509
-212.975906
-192.053680
-175.801758
-163.824219
-154.290253
-146.223877
-138.888687
-130.144989
-119.215775
-107.070045
-96.420204
-88.405174
-83.092865
-79.317337
-76.073051
-72.180054
-65.566765
-54.982830
-40.419827
-23.565964
-5.820244
11.702370
28.617777
44.934566
61.186619
78.530487
97.789337
119.126747
141.634415
163.990814
184.224380
199.900757
208.132599
206.423187
193.481369
169.833344
137.853149
100.964874
62.874954
26.471054
-6.635017
-36.048431
-62.033470
-84.873535
-104.364700
-119.781723
-130.099915
-134.404572
-132.360260
-124.320557
-111.387421
-95.154312
-77.313690
-59.402466
-42.647537
-28.028503
-16.383545
-8.563507
-5.271255
-6.785477
-12.746506
-21.946320
-32.547668
-42.396088
-49.487000
-52.220276
-49.672272
-41.553345
-28.219391
-10.720001
9.420044
30.418823
50.694183
69.352448
86.455322
102.867920
119.971008
139.029083
160.698456
184.721191
209.758759
233.368927
252.290131
262.970703
262.378021
248.801453
222.522797
185.758850
142.274170
96.389069
52.107880
12.468689
-20.698059
-46.562775
-65.161621
-77.178955
-83.829742
-86.645172
-87.193237
-86.677612
-85.598328
-83.858459
-81.025513
-76.842346
-71.678223
-66.698608
-63.583282
-63.948761
-68.672119
-77.422852
-88.645355
-100.019958
-109.153748
-114.174164
-113.975189
-108.221771
-97.204742
-81.768524
-63.227692
-43.265656
-23.490356
-4.990845
12.084351
28.391693
44.874664
62.037903
79.445190
95.762299
109.313080
118.786804
123.695221
124.390381
121.786926
116.970764
111.046326
105.173157
100.697815
99.063171
101.444580
108.237091
118.596954
130.372192
140.436371
145.630707
143.615723
133.544434
116.172791
93.529541
68.106720
42.198090
17.419189
-5.444061
-26.268372
-45.475830
-63.666443
-81.259491
-98.321838
-114.412842
-128.688538
-140.206543
-148.398193
-153.367126
-156.046967
-157.841583
-160.061523
-163.190308
-166.515350
-168.228333
-166.119293
-158.567047
-145.334076
-127.706787
-107.913483
-88.168304
-69.856018
-53.264313
-37.875031
-23.052765
-8.651062
5.032928
17.439301
28.322754
37.929871
47.060883
56.768433
67.801025
80.232086
93.280518
105.657990
116.000488
123.599487
128.675323
132.390320
136.414978
142.254578
150.828644
162.082794
174.942566
187.296356
196.222687
198.457031
191.131165
172.636597
143.327576
105.605286
63.320801
20.708740
-18.749664
-52.832367
-80.899719
-103.429688
-121.445679
-136.019470
-147.803864
-156.929047
-163.005676
-165.510193
-164.098480
-158.992035
-151.136536
-141.883270
-132.708405
-124.618469
-117.870514
-111.914825
-105.632660
-97.929504
-88.145508
-76.418213
-63.557648
-50.753296
-38.982941
-28.698120
-19.727844
-11.559814
-3.683594
4.132843
11.764862
18.983063
25.523590
31.321228
36.353302
40.687408
44.374237
47.530548
50.433960
53.519928
57.368408
62.572876
69.697235
79.121643
91.015900
105.223846
121.371246
139.045197
157.873047
177.692932
198.281342
218.934814
237.984070
252.783600
259.991547
256.534729
240.663757
212.542603
174.382416
129.770752
82.793732
37.105896
-4.625031
-40.890106
-71.283875
-96.114044
-116.140594
-132.153381
-144.827942
-154.527466
-161.369171
-165.325409
-166.292877
-164.338196
-159.707977
-153.047302
-145.302612
-137.499084
-130.587372
-125.055176
-120.831757
-117.346527
-113.771057
-109.338867
-103.554443
-96.118652
-87.085754
-76.746155
-65.657837
-54.613495
-44.382446
-35.492493
-27.962250
-21.325714
-14.871887
-8.062927
-0.848846
6.374878
13.013916
18.678162
23.425751
27.869812
32.814575
38.959045
46.564453
55.324188
64.543579
73.460266
81.664001
89.504852
97.921814
108.105621
120.913879
136.419678
153.596252
170.580505
184.946472
194.225372
196.342590
189.890717
174.466034
150.746521
120.473999
86.154144
50.570679
16.239044
-14.994873
-42.120697
-64.851196
-83.376373
-98.110748
-109.493225
-117.921326
-123.520966
-126.338928
-126.514557
-124.449158
-120.985626
-117.288086
-114.476929
-113.186279
-113.446625
-114.699890
-116.185883
-117.332977
-117.759827
-117.232025
-115.487671
-112.111816
-106.693085
-99.098206
-89.539764
-78.616852
-66.996460
-55.180756
-43.341034
-31.463684
-19.407837
-7.246124
4.664673
15.846375
25.808350
34.343994
41.602539
48.039581
54.176025
60.376984
66.664368
72.760712
78.322144
83.157959
87.460693
91.964935
97.774475
106.075958
117.774872
132.938080
150.379181
167.695496
181.554779
188.492828
185.869904
172.626190
149.544952
118.979889
84.137695
48.215790
13.797913
-17.426056
-44.598877
-67.401520
-85.856293
-100.192902
-110.836304
-118.401428
-123.567200
-126.946350
-128.788300
-129.105042
-127.771667
-124.811310
-120.683624
-116.244781
-112.461395
-110.038910
-109.114258
-109.305939
-110.014374
-110.771790
-111.340881
-111.621582
-111.312531
-109.802155
-106.427704
-100.799896
-93.147491
-84.271484
-75.054199
-66.014526
-57.118744
-47.933380
-37.899597
-26.994385
-15.916016
-5.595459
3.414459
11.233917
18.454132
25.762695
33.775299
43.074371
53.737549
65.372925
77.236694
88.617950
98.911560
107.736755
114.841064
120.269867
125.014679
130.149658
136.476196
144.442139
154.083344
164.374939
172.931488
176.373291
171.578094
158.489166
138.101990
111.374023
79.623627
45.097839
10.500793
-21.797089
-50.076904
-73.383484
-87.945465
-92.815552
-91.455994
-88.882843
-87.880798
-88.358673
-88.568176
-86.391937
-80.118408
-63.523804
-34.973358
0.119324
33.523376
60.264313
79.607269
93.386444
104.528168
116.251251
138.905945
177.882294
229.303558
284.180023
334.857330
376.138214
404.289215
417.267212
369.810791
254.238678
109.894440
-14.161392
-97.765930
-146.083496
-172.102448
-186.744370
-196.209381
-202.857635
-200.024277
-185.140320
-163.999634
-145.569595
-134.652512
-131.120300
-132.510681
-136.092880
-139.918488
-137.456848
-126.221542
-110.289368
-96.125549
-87.225563
-83.568245
-83.626396
-85.766579
-88.805496
-88.464516
-82.850754
-74.061653
-65.852669
-60.274712
-57.463036
-56.751411
-57.441513
-59.172142
-60.203430
-60.034203
-59.717674
-60.289658
-60.891739
-59.038185
-52.253014
-39.598778
-22.515968
-3.552208
13.769569
26.487007
33.371346
35.312759
34.383286
32.543518
30.975731
30.049324
29.818947
30.174301
31.080978
32.279854
33.244072
33.381248
32.392639
30.351868
27.575523
24.935577
22.782532
21.664993
21.997787
23.742577
26.383347
28.850243
30.018097
29.088173
26.118187
22.018196
18.215607
15.974045
15.732933
17.052521
18.582535
18.684708
15.999352
10.050217
1.327522
-8.681076
-18.089584
-25.306114
-29.376396
-30.189354
-28.120987
-23.707138
-17.448807
-9.915375
-1.707626
6.455956
13.904984
20.353081
26.084740
31.644043
37.641792
44.185852
51.012047
57.592918
63.546089
68.638390
72.766411
75.914825
77.944710
78.588211
77.625237
74.940483
70.565750
64.572296
57.354439
48.771797
38.790100
27.369011
14.499493
0.384743
-14.455414
-29.081287
-42.213409
-52.643589
-59.546997
-62.775902
-62.872505
-60.700249
-57.173180
-52.963173
-48.345200
-43.514862
-38.379272
-32.986980
-27.149450
-20.850014
-14.101985
-7.435609
-1.785784
1.519870
1.152102
-3.726574
-12.866106
-25.003042
-38.109844
-50.169907
-59.759411
-66.481979
-70.511742
-72.199570
-71.545181
-68.333046
-62.285507
-53.640999
-43.187454
-32.027756
-21.065350
-10.694935
-0.816608
8.631855
17.427967
24.803154
30.016441
32.554005
32.651249
31.041744
28.709442
26.494076
24.993778
24.584415
25.455299
27.622509
31.004185
35.069229
39.126511
42.573418
45.122765
46.836411
48.499008
50.742226
53.932625
58.065491
62.927238
68.064194
73.125900
77.918251
82.561020
87.528854
93.430382
100.782158
109.841583
120.288773
131.209717
141.058044
147.950256
149.712860
144.422546
130.725113
108.456650
78.891663
44.573273
8.622818
-26.060883
-57.626266
-85.322128
-109.223969
-129.671555
-146.916763
-160.992111
-171.903931
-179.829071
-185.047531
-187.811157
-188.163986
-185.932617
-181.021942
-173.590912
-164.247223
-153.981750
-143.946472
-135.044159
-127.690186
-121.660461
-116.159302
-110.171967
-102.952637
-94.275543
-84.480743
-74.120270
-63.571564
-52.758240
-41.339172
-28.970886
-15.736542
-2.120483
11.206421
23.757141
35.343811
46.138947
56.285858
65.714935
74.127167
81.224701
86.857849
91.127350
94.273956
96.668213
98.819489
101.413849
105.470978
112.143036
122.215881
135.648407
151.162140
166.249695
177.628601
182.114716
177.438416
162.904816
139.609406
110.035492
77.382294
44.698792
14.216553
-12.860352
-36.235870
-56.042999
-72.526428
-85.728302
-95.668732
-102.430908
-106.262878
-107.591888
-106.982117
-104.922028
-101.901794
-98.383972
-94.866882
-91.882446
-89.906403
-89.268890
-90.064148
-92.098297
-94.981476
-98.159088
-101.043152
-103.009766
-103.554352
-102.266846
-98.994629
-93.770172
-86.878143
-78.630127
-69.384552
-59.442871
-49.038574
-38.364838
-27.598816
-16.885437
-6.364777
3.839569
13.623444
22.876617
31.475464
39.438995
46.815491
53.826782
60.752350
67.799316
74.953674
81.935638
88.335846
93.833252
98.373383
102.376312
106.592194
111.965790
119.274200
128.922241
140.593628
153.044525
164.036469
170.684143
170.104828
160.319397
141.021912
113.773407
81.496948
47.554596
14.787964
-14.994080
-40.940033
-62.761932
-80.411224
-93.949707
-103.734985
-110.438538
-114.935669
-117.868927
-119.439606
-119.322754
-117.018951
-112.318817
-105.564850
-97.551758
-89.321960
-81.764130
-75.455078
-70.599976
-67.159576
-64.907379
-63.548981
-62.708466
-62.032135
-61.145905
-59.668488
-57.283752
-53.826630
-49.319916
-44.038849
-38.413208
-32.803467
-27.284851
-21.670837
-15.533661
-8.481232
-0.339722
8.806885
18.783875
29.282440
40.063049
50.844147
61.288940
70.998871
79.624451
86.972046
93.206360
98.782288
104.458557
111.110870
119.291351
128.794525
138.350037
145.597626
147.648712
141.917297
127.086304
103.616547
73.678375
40.407745
6.963989
-24.135559
-51.476593
-74.556763
-93.272125
-107.672394
-117.620132
-122.944214
-123.628098
-120.122040
-113.296234
-104.353149
-94.419556
-84.274460
-74.230927
-64.371307
-54.769684
-45.853958
-38.305527
-32.847961
-29.952911
-29.562881
-31.070282
-33.548523
-36.028534
-37.808853
-38.602371
-38.482361
-37.790619
-36.953125
-36.204147
-35.488358
-34.445374
-32.446152
-28.828598
-23.112885
-15.150391
-5.159149
6.376648
18.914001
32.038849
45.619980
59.867615
75.243515
92.319382
111.379898
132.143311
153.400848
173.012115
188.167297
196.028336
194.470581
182.693436
161.475723
132.881607
99.685715
64.715759
30.270248
-2.091644
-31.522202
-57.594315
-80.149063
-99.105530
-114.536774
-126.721329
-136.115280
-143.322693
-148.842453
-152.968689
-155.746002
-157.094421
-157.015915
-155.766891
-153.759567
-151.417419
-148.946198
-146.125275
-142.391571
-137.015228
-129.410675
-119.330849
-106.990067
-92.976227
-78.091904
-63.120125
-48.565010
-34.657669
-21.361599
-8.543293
3.908108
15.998528
27.498051
38.046215
47.207008
54.763618
60.825569
66.021492
71.322578
77.568512
85.063805
93.252174
100.916603
106.644653
109.593842
109.878510
108.536026
107.167297
107.462234
110.804001
117.980705
129.026535
142.948090
157.584595
169.856598
176.376022
174.389526
162.651382
141.809479
114.150963
82.871582
51.271667
22.081619
-2.910828
-22.915260
-38.047363
-49.148155
-57.332413
-63.694962
-68.905602
-73.123100
-76.107750
-77.502945
-77.132439
-75.088112
-71.763741
-67.735451
-63.590828
-59.926155
-57.268448
-55.986832
-56.143906
-57.420547
-59.090698
-60.201233
-59.903336
-57.751236
-53.884354
-49.018860
-44.190720
-40.343872
-38.011444
-37.149933
-37.329498
-37.995407
-38.720764
-39.286301
-39.485245
-38.928162
-36.974579
-33.002121
-26.690079
-18.244263
-8.324539
2.371017
13.456314
24.979050
37.241516
50.406204
64.240799
78.179749
91.519669
103.823303
115.026291
125.475952
135.732224
146.488937
158.427338
171.990936
187.099136
202.713531
216.662445
225.884155
227.129730
217.890533
197.242477
166.159988
127.303665
84.243698
40.600739
-0.679520
-37.685120
-69.531235
-96.173935
-117.940643
-135.325714
-148.688568
-158.254364
-164.041183
-165.993332
-164.043442
-158.242844
-148.858185
-136.454895
-121.891281
-106.243378
-90.596756
-76.004669
-63.367676
-53.395050
-46.520462
-42.838562
-42.061996
-43.519028
-46.378418
-49.813599
-53.182816
-56.067001
-58.111221
-58.920868
-58.093643
-55.438263
-51.165359
-45.838562
-40.097244
-34.196381
-27.747604
-19.791733
-9.233810
4.572617
21.491577
40.442657
59.703659
77.402145
91.992966
102.654785
109.394760
113.122787
115.289444
117.693497
121.962189
129.191574
139.541901
152.096283
164.775223
174.722137
178.890579
174.855042
161.515518
139.510834
110.931183
78.832947
46.292740
15.828522
-11.014755
-33.607651
-52.040771
-66.749878
-78.258545
-86.937134
-92.942444
-96.360519
-97.265564
-95.964966
-93.067184
-89.358582
-85.626007
-82.443085
-80.222321
-79.160706
-79.553741
-81.621780
-85.639984
-91.607010
-99.238327
-107.832504
-116.529724
-124.451630
-130.829941
-135.193817
-137.306793
-137.095825
-134.667343
-130.225021
-124.050705
-116.476700
-107.738419
-97.820862
-86.387802
-72.735916
-56.126907
-36.117233
-12.919266
12.616974
39.296341
66.081421
92.489456
118.749405
145.510910
173.479385
202.835739
232.873489
261.787720
286.901154
304.971313
312.979431
308.772461
291.803467
263.373169
226.420120
184.779053
142.347778
102.218826
66.353317
35.570602
9.866486
-11.197098
-28.241669
-41.845245
-52.484192
-60.412460
-65.702545
-68.364929
-68.345810
-65.867462
-61.420013
-55.847946
-50.154907
-45.455383
-42.656876
-42.295395
-44.427017
-48.610367
-54.013092
-59.757202
-64.979660
-69.039185
-71.486786
-71.958633
-70.196701
-66.185486
-60.170532
-52.778381
-44.764397
-36.790108
-29.076057
-21.412857
-13.329399
-4.507240
4.993980
14.815323
24.508324
33.907326
43.284058
53.254860
64.539207
77.632454
92.670868
109.313667
126.761749
143.720322
158.420670
168.786011
172.688797
168.389282
155.088684
133.230331
104.517715
71.594246
37.429241
4.633314
-24.967787
-50.531120
-72.022110
-89.866928
-104.563545
-116.451920
-125.731369
-132.456238
-136.684494
-138.523743
-138.160217
-135.946686
-132.321045
-127.917091
-123.554611
-119.997650
-117.798485
-117.102226
-117.589409
-118.497849
-118.942474
-118.198723
-116.007118
-112.586609
-108.594337
-104.810669
-101.817581
-99.671875
-97.869072
-95.514450
-91.653221
-85.780113
-78.009499
-69.071861
-59.935471
-51.431480
-43.914932
-37.206093
-30.841537
-24.271584
-17.114655
-9.137543
-0.093231
10.325626
22.495453
36.618553
52.523869
69.507263
86.533997
102.511604
116.596184
128.418518
138.123947
146.271973
153.744812
161.602982
170.890274
182.349289
196.017700
210.856247
224.701736
234.563843
237.414841
231.045471
214.778351
189.655930
157.926941
122.317520
85.221130
48.254684
12.344992
-21.975321
-54.120453
-83.319977
-108.650925
-129.375977
-145.088791
-155.900467
-162.342621
-165.180237
-165.175415
-163.036057
-159.307892
-154.468597
-148.888306
-142.932587
-136.829636
-130.684540
-124.502937
-118.261047
-111.889603
-105.409836
-98.853981
-92.316574
-85.880913
-79.655197
-73.753937
-68.184303
-62.726135
-56.911625
-50.149502
-42.073658
-32.772583
-22.955956
-13.602358
-5.663794
0.394567
4.635509
7.526789
9.665380
11.500921
13.213181
14.783074
16.040813
16.888090
17.412621
18.121269
19.801708
23.422380
29.773718
39.088425
50.914833
64.370712
78.508080
92.766396
107.131699
121.919586
137.547287
154.075943
170.968689
186.981644
200.172485
208.147858
208.517548
199.637482
181.217987
154.627182
122.461220
87.955544
53.984486
22.581261
-5.138798
-28.676086
-47.921631
-62.920464
-73.975281
-81.602608
-86.453499
-89.066788
-89.741150
-88.599724
-85.780441
-81.701767
-77.101852
-72.882423
-69.741898
-67.932312
-67.248306
-67.228012
-67.330940
-67.171112
-66.540634
-65.377975
-63.634396
-61.189873
-57.885067
-53.561844
-48.075195
-41.394894
-33.645607
-25.002163
-15.627501
-5.628740
4.896573
15.983940
27.635696
39.938499
53.025555
67.061646
82.125450
98.108147
114.650421
131.215820
147.366440
162.949295
178.275787
193.968262
210.653076
228.720978
247.982788
267.607239
286.041016
300.964722
309.381256
307.921112
293.454193
263.912842
218.932465
160.071808
90.416832
13.843384
-65.772156
-145.042892
-221.017761
-290.949890
-352.198456
-402.494476
-440.529633
-466.570862
-482.703918
-492.294220
-498.880127
-504.944092
-510.930603
-515.245850
-515.017517
-507.559875
-491.589569
-467.841339
-438.823059
-407.741486
-377.418793
-349.449860
-324.176910
-301.120148
-279.650208
-259.462646
-240.670151
-223.535248
-208.222046
-194.571533
-182.102905
-170.164658
-158.014832
-145.046829
-130.886948
-115.512756
-99.317505
-82.998047
-67.352295
-52.817535
-39.203552
-25.547607
-10.349792
7.923737
30.181335
56.372375
85.539001
116.354736
147.823364
180.016235
214.147949
252.315918
296.931763
350.156921
413.218567
485.607849
564.141235
642.370728
711.049744
760.062622
781.175171
770.579041
729.986572
665.574646
585.388672
496.546936
403.465698
307.790894
209.774170
110.169922
11.568237
-81.314819
-162.781372
-227.747559
-273.597290
-300.832153
-312.774902
-314.101685
-308.829956
-299.022705
-284.717773
-265.078003
-239.958008
-210.894043
-180.874878
-153.005249
-129.096802
-108.965942
-90.910156
-72.868530
-53.620239
-33.262573
-12.838501
6.466064
24.200928
41.072998
58.565430
78.168335
100.540527
125.080444
150.120850
173.532593
193.618652
209.663818
221.986328
231.679443
239.989258
248.010376
256.449585
265.829712
276.622925
289.105835
303.117798
317.559204
330.291016
338.210205
337.947998
326.822144
303.597046
268.987183
225.457886
176.615234
126.266724
77.491333
32.317627
-8.238892
-43.836792
-74.348755
-99.491089
-118.858643
-132.158569
-139.496460
-141.427490
-139.042114
-133.693726
-126.672363
-119.062439
-111.608643
-104.755798
-98.758179
-93.782288
-89.900940
-87.087830
-85.132812
-83.637024
-82.132385
-80.161072
-77.417114
-73.855347
-69.559326
-64.634460
-59.078430
-52.726685
-45.271240
-36.298096
-25.475708
-12.727173
1.660767
16.949951
32.107727
46.109070
58.375793
69.090881
79.089294
89.792786
102.650269
118.614502
137.787842
159.179810
180.541382
198.712036
210.112061
211.393188
200.291138
176.224182
140.531860
96.155518
47.058838
-2.569641
-48.994446
-89.473877
-122.507538
-147.816467
-166.090912
-178.508728
-186.256012
-190.201141
-190.857666
-188.533051
-183.553772
-176.387543
-167.584991
-157.733521
-147.414734
-137.270721
-128.110504
-120.856354
-116.229767
-114.479950
-115.139618
-117.061249
-118.820160
-119.147705
-117.257111
-113.007233
-106.771240
-99.217682
-90.909271
-82.217346
-73.158966
-63.414673
-52.459534
-39.879547
-25.524582
-9.684616
6.860291
23.069962
37.915924
50.752716
61.541763
70.956375
80.300781
91.158569
104.869888
121.989075
141.726242
161.741028
178.494522
187.910553
186.497757
172.284470
145.508484
108.500259
65.143875
19.813553
-23.531906
-61.953491
-93.704666
-118.132462
-135.357193
-145.973831
-151.024811
-151.767532
-149.463104
-145.280640
-139.943619
-133.757141
-126.847290
-119.338120
-111.591965
-104.181610
-97.637283
-92.379028
-88.510834
-85.939926
-84.479538
-83.893921
-83.750793
-83.468002
-82.328354
-79.653015
-75.037689
-68.489914
-60.361710
-51.135406
-41.253708
-31.061325
-20.765564
-10.623245
-0.812180
8.630707
17.871277
27.377533
37.661179
49.104401
61.866669
75.761703
90.347015
105.186844
119.983139
134.838821
150.284103
167.076477
185.774338
206.152176
226.690216
244.605957
256.362732
258.410339
248.148636
224.617172
188.757767
143.264221
92.052460
39.506866
-10.316742
-54.312866
-90.671051
-118.960541
-139.709869
-153.929550
-162.706818
-166.908722
-167.213593
-164.257721
-158.754379
-151.551727
-143.535248
-135.493484
-128.075485
-121.713593
-116.596878
-112.759552
-110.025925
-108.090652
-106.477432
-104.620117
-101.904999
-97.849731
-92.154907
-84.825226
-76.103714
-66.337326
-55.925446
-45.187210
-34.387497
-23.788345
-13.598846
-3.984848
5.044540
13.682480
22.194580
30.851273
39.769073
48.892532
58.162308
67.524185
77.065720
86.963593
97.370026
108.517395
120.758484
134.658630
150.881622
169.632111
190.152985
210.240906
226.468353
234.831146
231.888123
215.734039
186.646973
146.931213
100.323975
51.041779
3.022400
-40.711609
-78.208069
-108.565399
-131.646545
-147.834198
-157.782501
-162.273132
-162.134735
-158.275269
-151.645477
-143.176056
-133.654938
-123.734436
-113.929840
-104.652771
-96.354736
-89.418457
-84.045563
-80.128082
-77.187653
-74.531006
-71.437195
-67.485687
-62.648010
-57.221497
-51.567780
-45.898560
-40.044098
-33.646698
-26.357269
-18.155212
-9.357422
-0.461761
8.149658
16.448364
24.761597
33.569550
43.202362
53.669128
64.670410
75.778381
86.623596
96.994537
106.931519
116.591309
126.355377
136.838379
148.871674
163.170563
179.881317
197.984558
214.985138
227.267548
230.896820
222.714874
201.319519
167.534180
124.142151
75.186981
25.015778
-22.409485
-64.117584
-98.171631
-123.716736
-140.866791
-150.571808
-154.377258
-154.073486
-151.278687
-147.164948
-142.267273
-136.690796
-130.335297
-123.189789
-115.577972
-108.090607
-101.441223
-96.232178
-92.750214
-90.914124
-90.287689
-90.244690
-90.042664
-89.096802
-86.929504
-83.291595
-78.156586
-71.654755
-64.047424
-55.703705
-46.994781
-38.316010
-29.801666
-21.433990
-13.036072
-4.399628
4.569397
13.806213
23.170380
32.528534
41.921021
51.517670
61.534698
72.027527
82.834839
93.618256
103.965424
113.636627
122.715881
131.726776
141.518494
153.126495
167.387482
184.362366
202.971588
220.702728
233.972046
238.858429
232.067444
211.947052
179.014587
135.898376
86.707825
36.024811
-12.001953
-54.286804
-89.033295
-115.530090
-133.914093
-144.867065
-149.430847
-148.885406
-144.611053
-137.886047
-129.673615
-120.552338
-110.789459
-100.506897
-90.040039
-79.998474
-71.277252
-64.727692
-60.902924
-59.843933
-60.905518
-62.890503
-64.300201
-63.637054
-59.828400
-52.463806
-41.989014
-29.515747
-16.428223
-3.920746
7.367584
17.510162
27.055481
36.772980
47.149048
58.274200
69.887207
81.596313
93.221527
104.973846
117.514709
131.734955
148.368500
167.581360
188.549500
209.180389
226.229706
235.858246
234.478363
219.720215
191.165833
150.550201
101.417786
48.397308
-3.846497
-51.385498
-91.607483
-123.266327
-146.279114
-161.320770
-169.411987
-171.650909
-169.109009
-162.839050
-154.059082
-143.988556
-133.727295
-123.997833
-115.028442
-106.698792
-98.795502
-91.299286
-84.519287
-78.921021
-74.921799
-72.530960
-71.207428
-69.900955
-67.354797
-62.601425
-55.294037
-45.847015
-35.222092
-24.475525
-14.363037
-5.088867
3.676422
12.517944
22.006821
32.524994
44.191483
56.943283
70.517517
84.513351
98.431778
112.004410
125.324829
139.083145
154.396957
172.246353
192.795410
214.712845
235.070602
249.753189
254.519241
246.107285
223.163712
186.667526
139.632477
86.418015
31.859375
-19.635223
-64.691483
-101.318481
-128.911911
-147.897400
-159.377151
-164.687820
-165.086060
-161.700119
-155.496613
-147.326477
-137.963409
-128.006744
-117.981499
-108.313141
-99.481934
-92.027390
-86.497749
-83.308777
-82.489861
-83.551041
-85.572174
-87.434166
-88.048164
-86.602562
-82.763596
-76.589424
-68.505486
-59.155930
-49.254425
-39.400669
-29.911083
-20.761250
-11.518139
-1.543888
9.778168
22.846798
37.554554
53.367012
69.594604
85.539261
100.829681
115.635201
130.621796
146.875336
165.477600
186.955063
210.600861
234.170715
253.889908
265.312439
264.395508
248.712723
218.107819
174.754715
122.566925
66.391212
11.085096
-39.251839
-81.837708
-115.376541
-140.015579
-156.991577
-167.943756
-174.460861
-177.674805
-178.265915
-176.604523
-172.771561
-166.882080
-159.107513
-149.818634
-139.705032
-129.767914
-121.101173
-114.598434
-110.650612
-109.036903
-108.990685
-109.498611
-109.440254
-107.982925
-104.689087
-99.679237
-93.452431
-86.819160
-80.417793
-74.497162
-68.754509
-62.494637
-55.015015
-45.942444
-35.295212
-23.537537
-11.303444
0.708069
12.002953
22.348927
31.901901
41.157440
50.874363
61.786530
74.270531
88.226952
103.119308
118.185074
132.881989
147.173523
161.680237
177.571518
196.042252
217.578812
241.200745
264.141083
282.125885
290.347870
284.982269
264.185211
228.625031
181.201157
126.157829
68.259186
12.056114
-38.651489
-81.040024
-113.638977
-136.429504
-150.679581
-158.475067
-161.949310
-162.730240
-161.610016
-158.733582
-153.985535
-147.435760
-139.546844
-131.079437
-122.949348
-115.946953
-110.682816
-107.461044
-106.251205
-106.725601
-108.173805
-109.661148
-110.151009
-108.820435
-105.304977
-99.836060
-93.108177
-85.991409
-79.072121
-72.485161
-65.921692
-58.880150
-51.056000
-42.463699
-33.374641
-24.151993
-15.070038
-6.226974
2.457367
11.100487
19.964119
29.441597
40.091209
52.454514
66.824135
82.993622
100.185127
117.264206
133.077545
146.894028
158.705170
169.366730
180.342621
193.271393
209.169098
227.622284
246.336624
261.328857
267.865662
261.791901
240.894562
205.569550
158.714417
104.935699
49.395935
-3.300484
-49.810890
-88.229080
-118.023804
-139.652618
-154.175903
-162.893570
-167.078125
-167.825150
-165.970154
-162.137085
-156.710495
-149.955460
-142.036697
-133.247925
-124.120483
-115.405136
-108.121689
-103.107269
-100.767471
-100.890991
-102.634674
-104.773117
-106.010193
-105.271576
-101.925339
-95.935272
-87.901215
-78.744217
-69.488525
-60.921829
-53.263214
-46.252396
-39.417221
-32.305832
-24.732941
-16.663925
-8.001556
1.536156
12.391945
24.871948
38.859222
53.679306
68.456802
82.382652
95.140884
106.928558
118.440445
130.823135
145.349945
162.997971
183.921936
206.972198
229.347153
246.886429
254.998901
249.779327
229.284531
194.150635
147.401321
93.697647
38.298882
-14.129982
-60.247009
-98.319466
-128.034775
-149.961029
-164.941528
-173.940765
-178.281281
-179.185944
-177.958878
-175.631393
-172.765625
-169.348328
-165.045380
-159.542206
-153.174469
-147.571533
-144.461334
-145.509277
-151.719940
-163.182343
-179.331284
-198.940216
-219.855927
-239.407440
-255.069672
-263.783417
-263.404602
-253.578384
-236.116699
-214.701584
-193.507797
-174.822815
-156.297577
-136.314209
-112.874290
-85.057396
-53.474190
-18.485138
19.583038
59.742691
102.159698
147.225510
190.096497
227.426239
257.082855
278.661865
293.342468
303.027771
309.667786
316.912750
327.104950
340.326172
355.921753
372.501831
388.765961
403.899963
417.395355
428.968414
441.110199
455.034363
469.389038
481.068329
485.723999
479.307373
459.268921
425.112976
364.520996
276.266388
168.674408
56.373871
-46.126205
-130.285965
-193.856384
-237.763184
-263.735382
-275.953979
-274.233337
-258.154449
-228.750458
-188.376511
-139.620819
-84.436241
-24.474560
37.689396
97.856705
150.930603
190.728210
212.501038
215.263229
202.569046
181.334641
158.906937
140.229538
126.681580
118.186493
113.366089
110.392761
107.849518
104.686035
99.922729
92.338959
80.564514
63.618713
42.098907
17.387878
-8.943176
-35.640442
-61.992493
-87.734558
-112.905945
-137.626404
-161.843750
-184.871460
-205.698853
-223.842102
-239.129456
-251.645935
-261.554993
-269.061584
-274.401550
-277.842163
-279.495728
-279.180298
-277.763000
-275.751892
-272.846985
-267.742126
-258.549988
-243.805359
-223.132935
-197.270630
-167.636658
-138.412292
-113.235962
-93.743103
-78.828918
-65.669495
-51.778503
-36.426575
-20.765137
-6.861267
-0.931824
-7.790588
-28.600220
-60.036865
-95.877319
-130.471558
-161.117126
-188.132507
-213.928589
-247.614380
-298.234131
-371.518494
-467.000977
-577.848450
-693.288330
-801.497437
-892.075378
-923.033691
-867.051819
-721.296204
-513.243103
-286.948975
-80.101746
88.753113
218.214600
315.312988
388.179626
437.339783
461.831482
463.071655
447.248901
423.948608
401.867645
386.016022
377.459045
374.620453
371.162506
361.919067
345.269775
323.866272
302.366547
283.837341
267.878815
251.607819
232.322784
207.107300
176.272034
143.250885
113.163788
90.356094
76.321930
69.591461
