1426080448.000000
64.000000
0.000000
0.000000
0.000000
0.000000
0.000000
0.000000
0.000000
0.000000
0.000000
0.002232
-0.004517
-0.011266
-0.011384
0.001186
0.025910
0.050634
0.051363
-0.001493
-0.130243
-0.355628
-0.659125
-1.009510
-1.370983
-1.719736
-2.055110
-2.399450
-2.786664
-3.239907
-3.796012
-4.418684
-5.059294
-5.664410
-6.202154
-6.680880
-7.149598
-7.678234
-8.310739
-9.143657
-10.089731
-11.041313
-11.884212
-12.564316
-13.135630
-13.760044
-14.652320
-15.962056
-17.914442
-20.317299
-22.903854
-25.379471
-27.578028
-29.572460
-31.675173
-34.317799
-37.813618
-42.541233
-48.146301
-54.104755
-59.833092
-64.972374
-69.582932
-74.143532
-79.344986
-85.707260
-93.761932
-102.997787
-112.617569
-121.730339
-129.766022
-136.751022
-143.303436
-150.746231
-157.773560
-166.643234
-177.947983
-191.791016
-206.968079
-220.565918
-228.246445
-225.361542
-208.531982
-176.870239
-132.762222
-80.049973
-23.069275
34.943390
92.436951
149.156952
205.227722
260.369629
313.741333
363.873962
409.833527
450.907745
486.502441
515.738647
537.227417
549.219971
549.961304
538.367004
514.205505
478.674011
433.879517
382.451263
327.021179
269.842346
212.634827
156.661285
102.955170
52.377197
5.908417
-35.578033
-71.427429
-101.361359
-125.524109
-144.423126
-158.766525
-169.262009
-176.532043
-180.973389
-182.868713
-182.446960
-179.979172
-175.809540
-170.341339
-163.985001
-157.076172
-149.862503
-142.481247
-135.007233
-127.475693
-119.934143
-112.443840
-105.074776
-97.901726
-90.970566
-84.315834
-77.951241
-71.892448
-66.144470
-60.725254
-55.647511
-50.920116
-46.553841
-42.536789
-38.872482
-35.554844
-32.590668
-29.973253
-27.709717
-25.799908
-24.242311
-23.043566
-22.166851
-21.608883
-21.359585
-21.410818
-21.747316
-22.360695
-23.233747
-24.352921
-25.718498
-27.254927
-28.956570
-30.815195
-32.822613
-34.991169
-37.344379
-39.872753
-42.562412
-45.425755
-48.306808
-51.111504
-53.695091
-55.856930
-57.321938
-57.829765
-57.077049
-54.781700
-50.797798
-44.843773
-36.907120
-27.123802
-15.741219
-3.116013
10.277573
23.998093
37.614929
49.982010
61.000519
70.549049
78.547920
84.984161
89.913315
93.355286
95.455498
96.790413
97.181496
96.634567
95.028854
92.224754
88.082825
82.970634
76.588196
68.876190
59.959351
49.986725
39.436737
28.742950
18.348801
8.664246
0.036697
-7.361008
-13.367645
-17.932755
-21.173676
-23.151688
-24.038132
-24.048767
-23.393326
-22.267120
-20.854111
-19.245346
-17.478348
-15.618263
-13.626450
-11.490646
-9.195641
-6.769302
-4.216064
-1.580551
1.154190
4.006638
6.981476
10.129684
13.499039
17.095184
20.876282
24.820892
28.889580
33.095634
37.449844
41.982330
46.692528
51.610344
56.603737
61.451668
65.825989
69.449699
72.040680
73.385750
73.286720
71.652359
68.460266
63.642147
57.143970
49.004570
39.385784
28.568848
16.935928
4.933922
-7.478142
-19.512310
-30.405231
-39.639294
-47.033794
-52.688988
-56.852173
-59.820915
-61.835560
-63.062115
-63.589355
-63.632484
-63.499001
-63.461479
-63.666916
-64.033936
-64.223785
-63.695179
-61.980499
-58.758728
-54.208099
-48.861851
-43.493168
-38.731510
-34.828018
-31.593468
-28.451286
-24.742744
-20.063911
-14.539093
-8.842110
-3.846054
-0.192589
1.965057
3.013115
3.746674
4.934219
7.174339
10.721710
15.630028
21.519424
27.381058
31.426247
31.302773
25.110489
12.513382
-4.598434
-22.537529
-37.186974
-45.756767
-47.855682
-45.240105
-40.722046
-36.494850
-33.354561
-30.796692
-27.964790
-24.531967
-21.083565
-18.859886
-18.283669
-19.099678
-20.138145
-20.014626
-17.649651
-12.935440
-6.767853
-0.520393
4.394676
7.436050
8.637321
9.160240
10.177132
12.577148
16.515579
21.513672
26.528397
30.251221
31.356377
28.676544
21.609787
10.321804
-4.024315
-19.319462
-32.995029
-42.670959
-46.907124
-45.438316
-39.356224
-30.390778
-20.497520
-11.198551
-3.407127
2.538998
6.754856
9.434135
10.882999
11.319099
10.984779
10.194508
9.241447
8.406811
7.765678
7.244633
6.603378
5.691929
4.525742
3.397839
2.778946
3.064638
4.481647
6.846298
9.757332
12.704866
15.215467
17.028687
18.148623
18.951674
19.961424
21.782341
24.738085
28.746824
33.203728
37.267841
40.106232
41.417892
41.598396
41.591911
42.454865
44.915882
49.070545
54.403290
60.006927
65.147980
68.933449
71.389145
73.135551
75.332657
79.304581
86.133118
96.135513
108.423836
120.788353
129.835495
131.770264
123.383965
103.094826
71.630478
31.933655
-11.577919
-54.174965
-91.905548
-122.245636
-144.082077
-157.498352
-163.229584
-162.440521
-156.497131
-146.968796
-135.566437
-123.865013
-113.137726
-104.161499
-97.223267
-92.399551
-89.521347
-88.364578
-88.513031
-89.461426
-90.538559
-91.091599
-90.529572
-88.471741
-84.725601
-79.325104
-72.406517
-64.308655
-55.481880
-46.480881
-37.758858
-29.536629
-21.732185
-14.044083
-6.128555
2.151947
10.680138
19.080627
26.968239
34.138252
40.765060
47.423264
54.773773
63.236885
72.691177
82.406227
91.359558
98.638908
103.918983
107.620018
110.849396
114.977852
121.155022
129.719757
139.805481
149.205536
154.702148
152.823242
140.866394
117.897980
85.229431
46.181442
5.197861
-33.307243
-65.933411
-90.745064
-107.178490
-115.720154
-117.501221
-114.075790
-107.190781
-98.654602
-90.081833
-82.731667
-77.371490
-74.268005
-73.335281
-74.241875
-76.536926
-79.760391
-83.438263
-87.200996
-90.698547
-93.651337
-95.689972
-96.384277
-95.264656
-91.931931
-86.313385
-78.644905
-69.467865
-59.369232
-48.813957
-38.000374
-26.915203
-15.545887
-4.025089
7.253767
17.779369
27.130051
35.222572
42.423969
49.471085
57.177818
66.087662
76.247650
87.090157
97.666893
107.016678
114.519226
120.150429
124.480476
128.686600
134.150742
142.152588
153.253662
166.828522
180.689606
191.263153
194.321136
186.232346
165.157562
131.866074
89.670265
43.545338
-1.265034
-40.507324
-71.693672
-94.121368
-108.490524
-116.140648
-118.669876
-117.542557
-114.114090
-109.607422
-105.152390
-101.654137
-99.603012
-99.066780
-99.692986
-101.053154
-102.867699
-105.137047
-108.089699
-111.865364
-116.196091
-120.342781
-123.223717
-123.803535
-121.574936
-116.684074
-109.919762
-102.314865
-94.682037
-87.328056
-79.997528
-72.040718
-62.636414
-50.989174
-36.466171
-18.691422
2.088470
24.877106
47.908783
69.088226
86.655350
99.918808
109.467804
116.872177
123.880676
131.653107
140.340424
149.251022
157.359177
163.827957
168.344406
171.113602
172.747360
174.189972
176.554688
180.899612
187.629379
196.014603
203.831268
207.585464
203.370789
188.001190
160.183594
120.990082
73.776215
23.438843
-24.707596
-66.083603
-97.815308
-119.077789
-130.863983
-135.198730
-134.478058
-130.710510
-125.268082
-118.928162
-112.166077
-105.398987
-99.038300
-93.428085
-88.646011
-84.698410
-81.659958
-79.620438
-78.605103
-78.356506
-78.503586
-78.478790
-77.795654
-75.766022
-72.150238
-67.081161
-60.892914
-53.840408
-46.086517
-37.800171
-29.228317
-20.557465
-11.188568
-0.772903
10.441849
21.843201
32.723099
42.654579
51.456909
59.305374
66.643623
74.993561
84.941757
95.733406
105.891479
114.218117
120.270828
124.303795
126.954597
128.955643
132.045441
136.442657
140.428131
141.351410
136.846924
125.541931
106.982285
81.437080
41.678299
-11.464622
-69.338753
-120.336632
-156.702759
-176.765274
-182.946396
-179.610321
-171.587402
-162.983353
-155.098480
-148.431671
-142.677994
-136.641861
-129.488464
-121.301018
-113.072067
-105.776817
-99.522041
-92.433823
-82.704338
-68.969231
-50.223564
-27.427711
-3.365318
18.379677
34.960732
45.513367
51.514626
54.805229
58.299248
66.236977
81.511223
104.745346
134.155396
166.525787
198.571152
228.690399
246.846695
236.609528
195.041214
133.520538
70.945778
21.915192
-9.167221
-26.004158
-35.173233
-42.190521
-48.366920
-51.231689
-49.137794
-43.179054
-36.608307
-32.587204
-32.427269
-35.596008
-40.762688
-45.472641
-46.868958
-44.043304
-38.322800
-32.234695
-27.868965
-26.013672
-26.311546
-28.072212
-30.041534
-30.549278
-28.924294
-25.645355
-21.806175
-18.391006
-15.812298
-14.066303
-13.139248
-12.730030
-12.140671
-11.106300
-9.996105
-9.456886
-9.674805
-9.829086
-8.185112
-2.846592
7.255054
21.740574
38.368988
53.799515
65.008453
70.528824
70.652313
66.719147
60.577480
52.285789
41.812088
29.396236
16.100754
3.598236
-6.404373
-13.090260
-16.888664
-19.150511
-21.540600
-25.163191
-30.303314
-36.374752
-42.334866
-46.935989
-49.280991
-49.180946
-47.575626
-46.543358
-48.585430
-55.608959
-67.792267
-83.127075
-97.784668
-107.667450
-109.983269
-104.247833
-92.330467
-77.232834
-61.850422
-47.831532
-35.555225
-24.633698
-14.680309
-5.738789
1.954159
8.046509
12.589417
15.841408
18.015594
18.956779
18.081970
14.529076
7.371284
-3.704147
-18.234100
-34.701584
-50.600426
-62.776497
-68.259750
-64.989571
-52.376701
-32.539963
-8.818130
14.649368
34.224281
47.726181
54.959290
57.476212
57.975952
59.467865
64.378677
74.178833
88.988449
107.602020
127.834717
147.153366
163.434891
175.513260
183.450745
188.277100
191.716705
195.580261
201.473755
210.609680
223.512817
239.605301
256.874542
271.899109
280.424866
278.690887
264.540558
238.155777
201.886826
159.139587
113.313293
66.878700
21.323612
-22.451393
-63.575951
-100.930740
-133.196060
-159.110092
-177.734863
-188.651169
-191.977051
-188.393768
-179.185822
-166.166626
-151.384949
-136.792480
-123.701767
-112.647919
-103.369431
-95.147476
-87.203964
-78.956833
-70.066315
-60.355072
-49.639694
-37.700150
-24.417328
-9.939758
5.170776
20.000397
33.566833
45.099457
54.372681
61.718842
67.897766
73.747253
79.936646
86.700317
93.829742
100.838257
107.103302
112.123566
115.583313
117.422913
117.868347
117.348816
116.544189
116.043243
115.980255
115.395203
111.841614
101.643494
80.750671
46.164917
-2.710938
-63.475891
-131.099915
-199.199768
-261.654541
-313.847961
-353.210693
-379.088684
-392.195740
-394.207703
-387.185730
-373.502686
-355.447937
-335.030945
-313.706421
-292.354370
-271.460266
-251.262329
-232.039734
-214.115601
-197.839905
-183.452148
-170.940430
-159.989685
-149.978882
-140.054199
-129.194946
-116.360901
-100.656616
-81.495850
-58.792480
-33.023987
-5.199432
23.340820
51.113068
76.954803
100.085205
120.322571
137.922058
153.365173
167.264374
180.118103
192.417450
204.464661
216.360321
227.851501
238.341919
247.127625
253.779449
258.566071
262.638397
267.730133
275.298920
285.590546
296.926086
305.792511
307.810120
299.071869
277.484222
243.304962
198.945709
148.206207
95.361847
44.452545
-1.069458
-38.580444
-66.585846
-84.818512
-94.395844
-97.462585
-96.603577
-94.074005
-91.387238
-89.237244
-87.860535
-87.404816
-88.122894
-90.225525
-93.646057
-97.909546
-102.241547
-105.765839
-107.880432
-108.362610
-107.282593
-104.849609
-101.163635
-96.158142
-89.604248
-81.321350
-71.296326
-59.868591
-47.732178
-35.752808
-24.730103
-15.135376
-6.880859
0.639465
8.312622
16.903809
26.734070
37.596252
48.889954
59.866394
70.006592
79.200378
87.830444
96.657959
106.718933
118.918335
133.652039
150.306274
166.973206
180.542358
187.178589
183.304199
166.634827
137.061707
96.883423
50.392700
2.889648
-40.623413
-76.442383
-102.747925
-119.530701
-128.034241
-130.000793
-127.167297
-121.033264
-112.927307
-104.301208
-96.611084
-91.255432
-89.100342
-90.269409
-94.076843
-99.325684
-104.702515
-109.196045
-112.232727
-113.645020
-113.508911
-111.908508
-108.833191
-104.206970
-97.948303
-90.093201
-80.816345
-70.527649
-59.729309
-48.964294
-38.642578
-28.973999
-19.907898
-11.121765
-2.160034
7.484741
18.117859
29.749329
41.992065
54.136780
65.507202
75.553223
84.255737
92.002441
99.606995
108.011719
118.091248
130.286987
144.290527
158.655884
170.687134
176.758118
173.083435
156.981812
127.974854
88.207947
42.166931
-4.693115
-47.288330
-82.140625
-107.776917
-124.485352
-133.516602
-136.360168
-134.337830
-128.534607
-120.158691
-110.656555
-101.713318
-94.892578
-91.182068
-90.762207
-92.997864
-96.829285
-101.180542
-105.417664
-109.293884
-112.851624
-115.988708
-118.221680
-118.792847
-116.877441
-112.048157
-104.454468
-94.950806
-84.695618
-74.792725
-65.855103
-57.742249
-49.822510
-41.297363
-31.736328
-21.246704
-10.473145
-0.204346
9.021118
17.067017
24.265808
31.206116
38.544434
46.769470
56.113525
66.453918
77.272522
87.791199
97.178894
104.968384
111.193970
116.623047
122.532654
130.372009
141.187195
155.014221
170.498474
184.705627
193.635132
193.090210
180.038208
153.631409
115.754761
70.616577
23.659119
-19.834473
-55.948059
-82.659485
-99.802856
-108.562927
-110.728516
-108.187561
-102.574036
-95.218994
-87.227600
-79.583984
-73.168335
-68.671265
-66.451782
-66.364441
-67.883362
-70.251160
-72.759399
-74.940796
-76.585083
-77.558838
-77.600464
-76.294922
-73.192566
-68.075562
-61.157043
-53.085632
-44.698120
-36.645813
-29.182983
-22.123230
-15.076538
-7.674255
0.185242
8.287354
16.229187
23.591248
30.211243
36.257690
42.294495
48.944580
56.656250
65.397095
74.606812
83.431335
91.061462
97.128723
101.915161
106.285645
111.365173
118.200928
127.322998
138.368347
149.929626
159.474548
163.758240
159.497742
144.426208
118.142151
82.464294
41.156860
-1.070435
-39.682007
-71.305969
-94.242065
-108.406189
-114.838745
-115.213989
-111.265625
-104.535889
-96.299683
-87.604980
-79.372864
-72.431763
-67.448059
-64.797913
-64.482849
-66.129456
-69.077576
-72.713806
-76.474609
-79.955872
-82.797241
-84.568726
-84.809845
-83.065460
-79.064362
-72.778259
-64.589752
-55.223602
-45.512115
-36.252502
-27.849365
-20.240845
-13.036377
-5.735260
1.948181
9.974182
18.128845
26.250214
34.386505
42.825653
51.807678
61.268646
70.715790
79.383209
86.620239
92.234833
96.689301
100.937347
106.356171
114.155609
124.970062
138.291565
152.149597
163.199982
167.461945
161.424500
143.295502
113.736603
75.812683
34.116882
-6.466614
-41.975311
-70.001129
-89.764130
-101.668427
-106.845978
-106.714020
-102.777802
-96.511597
-89.250854
-82.130463
-75.857391
-70.782715
-66.892151
-64.046051
-62.180359
-61.359802
-61.777100
-63.421082
-66.010254
-68.825256
-70.951355
-71.494690
-69.922394
-66.093597
-60.249420
-52.857574
-44.482239
-35.747162
-27.187378
-19.286896
-12.223175
-5.816803
0.355988
6.768005
13.610687
20.811127
28.037628
35.112518
42.097748
49.293579
57.004242
65.282196
73.792816
81.990875
89.387939
95.786865
101.422760
106.884125
112.996918
120.572784
130.158539
141.652710
153.905731
164.651611
170.667389
168.692200
156.462463
133.613800
102.036102
65.384338
28.168335
-5.558746
-32.979584
-52.944458
-65.716431
-72.392395
-74.336273
-72.718750
-68.517975
-62.600342
-55.894531
-49.537018
-44.706940
-42.264832
-42.510773
-45.065277
-48.951843
-53.158966
-56.979370
-60.319794
-63.510468
-66.983093
-70.766815
-74.184998
-76.034485
-74.935333
-70.126251
-61.839569
-51.325958
-40.384430
-30.625000
-22.771881
-16.453491
-10.519379
-3.611572
5.144775
15.821869
27.770660
39.916809
51.255615
61.052887
69.052094
75.512085
81.172913
87.141693
94.571991
104.181610
115.618134
127.243958
136.120880
138.758392
132.124146
114.724335
87.220795
52.383545
14.355011
-22.458527
-54.429474
-79.338074
-96.451233
-106.167542
-109.555481
-107.927673
-102.606537
-94.839600
-85.893463
-76.971283
-69.143860
-63.192444
-59.506409
-58.088501
-58.626587
-60.681702
-63.814117
-67.578247
-71.507507
-74.999146
-77.373352
-77.991821
-76.360382
-72.272675
-65.771545
-57.219269
-47.214783
-36.579834
-26.194763
-16.806946
-8.684967
-1.529053
5.494720
13.320709
22.588928
33.307983
44.868988
56.358521
66.944733
76.246185
84.394653
92.007538
100.037048
109.562378
121.473907
136.104156
152.772278
169.560883
183.437225
190.806305
188.408325
174.289795
148.495728
113.175720
72.251160
30.370178
-8.053101
-39.804840
-63.316681
-78.624573
-86.916687
-89.984222
-89.603577
-87.287415
-84.153290
-81.038940
-78.520569
-76.987305
-76.614990
-77.399933
-79.186066
-81.838593
-85.249908
-89.334869
-93.958923
-98.769745
-103.159180
-106.253571
-107.156891
-105.232239
-100.341431
-92.980164
-84.128479
-74.861664
-65.929260
-57.545959
-49.405762
-41.002228
-31.950958
-22.243561
-12.138092
-1.968719
8.140991
18.244812
28.546661
39.093140
49.723206
60.053314
69.718475
78.543518
86.640167
94.371490
102.398499
111.523605
122.492050
135.757416
151.008636
166.870361
180.803116
189.453445
189.496048
178.556305
156.118164
123.790710
85.054550
44.310425
5.870514
-26.959244
-52.288223
-69.646286
-79.645935
-83.493713
-82.703339
-78.753494
-72.984924
-66.520279
-60.160431
-54.551300
-50.145950
-47.386627
-46.594681
-47.896774
-51.030365
-55.381348
-60.114029
-64.407303
-67.687363
-69.608231
-69.937088
-68.368164
-64.588379
-58.441284
-50.115738
-40.324585
-30.080170
-20.449203
-12.186630
-5.544586
-0.262894
4.265808
8.876389
14.339554
21.123901
29.235596
38.266388
47.505798
56.256119
64.076477
70.875305
76.860458
82.456665
88.260666
95.107712
103.853058
114.963348
127.890869
140.668976
149.957367
151.934784
143.563477
123.707947
93.763611
57.252289
18.726135
-17.400238
-47.928040
-71.214203
-87.069550
-96.132172
-99.446686
-98.077057
-93.118073
-85.733459
-77.252594
-69.055756
-62.401062
-58.049042
-56.266815
-56.865845
-59.347656
-63.194611
-67.936768
-73.089417
-78.096832
-82.280304
-84.991608
-85.760223
-84.452423
-81.194427
-76.310455
-70.161194
-63.028625
-55.155823
-46.807343
-38.258850
-29.822571
-21.748535
-14.137970
-6.842590
0.479462
8.333862
17.066223
26.763367
37.078094
47.423126
57.140991
65.920929
73.809204
81.327881
89.282532
98.465363
109.479675
122.384583
136.342987
149.381104
158.425049
159.930176
150.831421
129.777588
97.847961
58.517578
16.786530
-22.282227
-54.790741
-78.671112
-93.677002
-100.848175
-101.859406
-98.492828
-92.436371
-85.124603
-77.839752
-71.620728
-67.260223
-65.212311
-65.570404
-67.961823
-71.759033
-76.205719
-80.661316
-84.690704
-88.040375
-90.509460
-91.847595
-91.723297
-89.838928
-86.124207
-80.783447
-74.136780
-66.552399
-58.236908
-49.325516
-39.913330
-30.216293
-20.559860
-11.219009
-2.341873
6.172943
14.590210
23.188324
32.202866
41.641724
51.330109
60.944595
70.148865
78.723663
86.751480
94.576935
102.793259
112.132217
123.215515
136.352493
151.175751
166.253250
179.043518
186.078430
183.838608
169.864639
143.825119
107.851746
66.061447
23.400620
-15.633789
-48.030426
-72.321198
-88.393631
-96.920395
-99.049591
-96.171371
-89.898361
-81.887558
-73.699203
-66.585281
-61.353333
-58.364075
-57.643753
-58.829651
-61.371216
-64.559006
-67.796249
-70.637863
-72.810532
-74.101944
-74.268188
-72.968155
-69.913300
-64.992523
-58.407471
-50.487244
-41.646957
-32.204376
-22.440536
-12.622055
-3.140350
5.646622
13.479797
20.412628
26.799042
33.226028
40.216919
48.168182
57.065857
66.576385
76.032516
84.686554
91.875580
97.401367
101.669144
105.746696
111.071114
118.892311
129.491241
141.713745
152.821594
159.031631
156.575104
142.962189
117.933197
83.722107
44.419464
4.825027
-30.832275
-59.712021
-80.596191
-93.450912
-98.947098
-98.064056
-92.070816
-82.544174
-71.370132
-60.484451
-51.508835
-45.391373
-42.310730
-41.853424
-43.371887
-46.193558
-49.841293
-53.962784
-58.258728
-62.454208
-66.167084
-68.974854
-70.433685
-70.074326
-67.588165
-62.892395
-56.299011
-48.401337
-39.989914
-31.689804
-23.834656
-16.276031
-8.538147
0.008591
9.807297
20.938965
33.063110
45.498367
57.477386
68.431519
78.118057
86.672775
94.573227
102.569687
111.516068
122.168030
134.691345
148.195312
160.425018
167.981689
167.183304
155.251892
131.405487
97.375427
56.981293
15.093536
-23.618103
-55.704025
-79.391190
-94.446793
-101.726212
-102.763519
-99.289734
-92.959763
-85.250702
-77.371506
-70.325790
-64.854263
-61.446808
-60.302383
-61.354874
-64.297531
-68.705078
-74.084305
-79.903748
-85.477203
-90.057526
-92.837936
-93.235764
-91.055267
-86.545258
-80.263855
-72.863754
-64.842972
-56.525970
-48.074112
-39.620529
-31.354126
-23.459137
-15.964874
-8.616928
-0.918549
7.778748
17.905716
29.411789
41.665802
53.631058
64.303070
73.044983
79.981232
85.847397
91.799484
99.023087
108.468033
120.606552
135.224945
151.154785
166.097916
176.692047
179.160309
170.368881
148.987045
116.134766
75.401672
31.808228
-9.447174
-44.354401
-70.665482
-87.889252
-96.810150
-98.903000
-95.937195
-89.724167
-81.967834
-74.187439
-67.558533
-62.839111
-60.288239
-59.855225
-61.210571
-63.960800
-67.660919
-71.929855
-76.318436
-80.294144
-83.164062
-84.193573
-82.724045
-78.455536
-71.577423
-62.819794
-53.181198
-43.624130
-34.778763
-26.811951
-19.517120
-12.536682
-5.500443
1.736069
9.064499
16.137619
22.482849
27.734818
31.898041
35.414047
38.998856
43.375504
48.819473
54.980652
61.160950
66.612991
71.059601
74.866272
79.003372
84.681610
92.979416
104.413315
118.492722
133.503998
146.418777
153.423782
150.923889
136.632126
110.509247
75.004562
34.463165
-6.071976
-42.097153
-70.625198
-90.448441
-101.893600
-106.262924
-105.246567
-100.472641
-93.437744
-85.440262
-77.591370
-70.876617
-65.993134
-63.290634
-62.761292
-64.128571
-66.960846
-70.877823
-75.482254
-80.205414
-84.333359
-86.998734
-87.377213
-84.975494
-79.779053
-72.217010
-63.086655
-53.360382
-43.951553
-35.571655
-28.535461
-22.636490
-17.289749
-11.765381
-5.606987
1.193855
8.216980
14.954140
21.131821
26.941086
32.954903
39.775391
47.745056
56.809288
66.543976
76.363152
85.748535
94.438118
102.546448
110.660919
119.662079
130.480530
143.449020
157.778992
171.175934
180.172729
180.838242
170.053391
146.575989
111.674110
68.952972
23.452942
-19.721977
-56.547859
-84.820862
-104.145035
-115.427849
-120.118141
-119.764702
-115.769852
-109.470360
-102.216324
-95.335739
-89.840034
-86.321884
-84.835365
-85.031395
-86.431389
-88.560349
-90.916336
-93.096024
-94.664459
-95.332207
-94.884171
-93.192551
-90.130989
-85.594101
-79.507294
-72.031937
-63.601406
-54.872070
-46.480148
-38.880718
-32.164703
-26.206760
-20.694477
-15.333332
-9.878069
-4.166992
1.857718
8.056665
14.171717
19.879370
25.087048
29.955206
34.989082
40.782082
47.716812
55.825897
64.700394
73.672165
82.132401
89.673576
96.264099
102.140900
107.882904
114.280235
122.321251
132.913010
146.441299
162.150543
177.799622
189.636932
193.254852
184.836975
162.582382
127.490059
83.394089
35.794472
-9.566757
-48.201351
-77.565735
-97.133453
-107.737549
-110.989052
-108.674759
-102.590523
-94.422325
-85.738586
-77.825188
-71.588058
-67.431702
-65.360748
-65.022293
-65.912575
-67.496239
-69.366829
-71.306320
-73.259209
-75.252052
-77.195549
-78.693115
-79.100601
-77.699974
-74.069221
-68.260078
-60.837799
-52.551811
-44.135002
-36.037788
-28.445984
-21.368851
-14.741760
-8.339653
-1.903839
4.907768
12.259613
20.005310
27.675095
34.675133
40.624054
45.545418
49.953552
54.605591
60.129135
66.814331
74.458725
82.517410
90.312653
97.329880
103.379456
108.699753
113.912094
119.867554
127.449860
137.249283
149.143997
161.919296
172.991730
178.770187
175.490967
160.356750
132.816116
95.005981
51.225220
6.797653
-33.525749
-66.576645
-91.060211
-107.106018
-115.576904
-117.567650
-114.294945
-107.164413
-97.876411
-88.209160
-79.757095
-73.557892
-69.945549
-68.748779
-69.500359
-71.705177
-75.024475
-79.192299
-83.991035
-88.991135
-93.571205
-96.859383
-97.985168
-96.301216
-91.661736
-84.523865
-75.812851
-66.658150
-58.048454
-50.543755
-44.226868
-38.749107
-33.520683
-27.900398
-21.442184
-14.000000
-5.767593
2.831596
11.257576
19.206100
26.655212
33.995850
41.749100
50.283783
59.663071
69.518997
79.215668
88.103790
95.833328
102.561920
108.955750
116.154572
125.302032
137.122772
151.264099
165.959686
178.024094
183.487778
178.603989
161.133377
131.213196
91.532822
46.686035
1.945297
-38.111298
-70.432816
-93.811264
-108.457642
-115.429153
-116.091187
-111.937943
-104.556076
-95.626572
-86.771683
-79.282761
-73.859085
-70.576218
-69.034424
-68.741180
-69.357773
-70.805023
-73.115982
-76.252945
-79.878647
-83.383759
-85.923248
-86.706711
-85.027023
-80.555923
-73.386414
-64.112732
-53.718582
-43.296295
-33.727570
-25.356674
-17.898743
-10.694153
-3.058380
5.305191
14.191330
22.968048
30.992325
37.944778
44.026917
49.931686
56.507874
64.329163
73.454056
83.339264
93.091919
101.773422
108.799606
114.102371
118.237671
122.203217
127.276657
134.618240
144.843811
157.360291
170.156342
179.780899
182.160690
173.717117
152.713623
119.930771
78.636047
33.599594
-10.171478
-48.625839
-79.206940
-100.946014
-113.990219
-119.304520
-118.245361
-112.480011
-103.776413
-93.899368
-84.290894
-76.033676
-69.769653
-65.733444
-63.866943
-63.991257
-65.890274
-69.333069
-74.004105
-79.463928
-84.955872
-89.522766
-92.128494
-92.057953
-89.072769
-83.618530
-76.541855
-68.798309
-61.088165
-53.642426
-46.284393
-38.650101
-30.374252
-21.366898
-11.796494
-2.110489
7.192673
15.716888
23.363693
30.389969
37.390640
44.990738
53.611862
63.199524
73.274902
83.071945
91.956024
99.691437
106.676880
113.860596
122.498459
133.603989
147.413559
162.847504
177.305359
186.984344
187.906296
177.063690
153.566360
119.121399
77.612679
34.013756
-6.966087
-41.970589
-69.301765
-88.759102
-100.962654
-106.857948
-107.439980
-103.795990
-97.224243
-89.173409
-81.077789
-74.067261
-68.802185
-65.550850
-64.397881
-65.431122
-68.741333
-74.246925
-81.394760
-89.150261
-96.080185
-100.828629
-102.475815
-100.763512
-96.039200
-89.085182
-80.836121
-72.110435
-63.481369
-55.206833
-47.207031
-39.182526
-30.744858
-21.674446
-11.954628
-1.772736
8.685921
19.316231
30.165634
41.377571
53.006927
64.890297
76.735771
88.128670
98.700302
108.242966
116.867760
125.175163
134.153503
144.953369
158.349655
174.099640
190.408463
203.999573
210.731934
206.794205
189.981842
160.586426
121.505547
77.476418
33.756775
-5.254723
-36.861115
-60.266277
-76.035843
-85.387238
-89.531006
-89.433365
-85.863335
-79.633751
-71.842117
-63.826084
-56.946236
-52.339603
-50.654030
-52.000031
-55.965630
-61.816757
-68.624039
-75.461243
-81.443512
-85.914772
-88.405991
-88.625252
-86.437622
-81.843048
-75.042381
-66.449821
-56.701828
-46.596901
-36.846169
-27.905190
-19.816589
-12.215355
-4.527664
3.773216
12.940514
22.811600
32.969101
42.849045
52.038414
60.282806
67.621231
74.314972
80.880539
88.046806
96.704453
107.595001
120.912628
135.739105
149.824631
159.693314
161.499023
152.144867
130.470535
97.767593
57.583908
14.725739
-26.070007
-61.199600
-88.642563
-107.887955
-119.433807
-124.259293
-123.543747
-118.578247
-110.811172
-101.755325
-92.838745
-85.282394
-79.861404
-76.965256
-76.548950
-78.343597
-81.800690
-86.236755
-90.887039
-95.025009
-98.064392
-99.557526
-99.256226
-96.998474
-92.729950
-86.518372
-78.586929
-69.350784
-59.350601
-49.106750
-38.996643
-29.153259
-19.503372
-9.879562
-0.030746
10.222687
21.050598
32.564438
44.800339
57.550812
70.275299
82.263748
92.839890
101.651260
108.956772
115.569717
122.732529
131.717758
143.425217
158.012390
174.407471
190.105438
201.295227
203.696533
193.718781
169.821167
133.288788
88.111572
39.882019
-5.761841
-44.555969
-74.246918
-94.537659
-106.392548
-111.349091
-111.135651
-107.353180
-101.416260
-94.602173
-87.992493
-82.410126
-78.388458
-76.222992
-75.885010
-77.260773
-80.035309
-83.742859
-87.779053
-91.512756
-94.366394
-95.846863
-95.561890
-93.257812
-89.100861
-83.466187
-76.738007
-69.229309
-61.156311
-52.708984
-44.062164
-35.421631
-26.975830
-19.483551
-13.385376
-8.432678
-3.613647
2.319641
10.231995
20.222260
31.667389
43.558228
53.659058
60.455841
63.981079
65.817963
68.183502
72.804657
80.475433
91.150085
104.192261
116.311218
124.020142
124.431274
115.859192
97.475830
69.056030
31.402405
-13.237976
-61.388153
-112.154572
-164.930725
-218.459686
-269.987000
-315.659882
-351.688232
-375.414795
-386.109070
-368.556702
-316.721680
-236.932648
-146.615112
-64.069702
0.866364
47.783081
81.018784
105.279755
123.687866
135.114990
138.441238
134.419708
126.119064
117.422211
111.083588
108.161011
108.330414
110.740143
112.402298
110.948669
105.698685
97.863892
89.553406
82.556190
77.809853
75.604317
75.822205
76.748932
76.646584
74.478683
70.364418
65.109055
59.658104
54.804367
51.153214
49.258377
49.032402
50.455490
53.415138
57.215347
59.902924
58.210075
48.580780
28.957001
0.254288
-33.534416
-66.350739
-92.205147
-107.273819
-110.894417
-105.278381
-94.009445
-80.403778
-66.608978
-53.650356
-42.025719
-32.382980
-25.467186
-21.808895
-21.250248
-22.791946
-24.947769
-26.124531
-25.589622
-22.826645
-18.212360
-12.453709
-6.191463
0.102470
6.259399
12.203281
17.953247
23.500381
28.857204
33.763947
37.956337
40.986893
42.553757
42.524052
41.194950
39.217445
37.349991
36.184513
35.815559
35.892509
35.790230
34.889992
32.904800
30.061516
26.944042
24.353226
22.953964
23.073439
24.624928
27.151443
29.814247
31.315186
30.073429
24.440212
13.316735
-3.262217
-23.647104
-44.768330
-62.877605
-74.745667
-78.686638
-75.082008
-65.928001
-53.900684
-41.315769
-29.647877
-19.409317
-10.565556
-3.139963
2.482168
5.616055
5.629140
2.393260
-3.595785
-11.395479
-19.699781
-27.341497
-33.574127
-38.205212
-41.413925
-43.498085
-44.624245
-43.972176
-41.094334
-35.749447
-28.028286
-18.443974
-7.876545
2.561958
11.847851
19.391239
25.301170
30.328938
35.767715
42.857376
52.216782
63.510113
75.557457
86.881180
96.360199
103.682312
109.395264
114.743805
121.203728
130.038483
141.860779
156.271454
171.458984
184.182693
190.104691
184.721100
164.857117
129.933441
82.478409
27.704256
-27.878540
-78.089218
-118.508484
-147.033386
-163.785156
-170.349655
-169.048065
-162.265533
-152.202469
-140.697617
-129.247406
-118.964005
-110.601555
-104.459129
-100.537300
-98.590767
-98.336197
-99.472847
-101.698875
-104.585350
-107.477791
-109.517509
-109.810051
-107.587715
-102.503853
-94.599190
-84.351685
-72.508820
-59.925846
-47.359978
-35.406853
-24.372822
-14.318790
-5.140694
3.374123
11.539314
19.779991
28.688362
38.928726
50.988640
64.780533
79.569748
94.088448
107.041100
117.653976
126.064468
133.292480
140.928482
150.592163
163.469879
179.721222
197.999298
215.237778
226.941467
228.074234
214.573151
184.819763
140.529419
86.512192
29.404182
-24.103668
-68.837372
-102.074699
-123.442482
-134.235687
-136.634872
-133.004730
-125.541382
-116.130798
-106.397354
-97.672539
-90.910088
-86.622910
-84.772552
-84.881378
-86.245071
-88.244141
-90.469070
-92.735977
-94.860374
-96.445183
-96.794373
-95.029587
-90.473259
-82.935898
-72.837540
-61.124466
-48.958199
-37.319160
-26.744659
-17.228462
-8.381805
0.309357
9.214462
18.366943
27.454025
36.027817
43.810730
50.895599
57.795135
65.198730
73.611084
83.059982
93.035873
102.650604
111.059418
117.928268
123.633041
129.269241
136.413864
146.578568
160.495575
177.414734
194.667267
207.824921
211.671722
201.748306
175.970032
135.583664
84.979446
30.412399
-21.720795
-66.543411
-101.445068
-125.955490
-140.980423
-147.994598
-148.538254
-144.082199
-136.179230
-126.510712
-116.778305
-108.370590
-102.108337
-98.178864
-96.328125
-96.231201
-97.702789
-100.698990
-105.083801
-110.366852
-115.600906
-119.482819
-120.775513
-118.687698
-112.994095
-104.119705
-92.959625
-80.675049
-68.394821
-56.986771
-46.840103
-37.796890
-29.248306
-20.498413
-11.063354
-0.914185
9.707336
20.500122
31.363327
42.480576
54.088211
66.274857
78.795288
91.149261
102.797195
113.427353
123.080200
132.102570
141.140472
151.039810
162.762894
177.059784
193.903305
211.919067
228.058167
237.894775
236.673157
220.789261
189.193909
143.990616
90.158737
34.151459
-17.802917
-61.139877
-93.675583
-115.406204
-127.737381
-132.685364
-132.262802
-128.183594
-121.959976
-114.951111
-108.367661
-103.186676
-100.052811
-99.131973
-100.196716
-102.756363
-106.236221
-110.196930
-114.350723
-118.516068
-122.388870
-125.395935
-126.646973
-125.112274
-120.143265
-111.746033
-100.732788
-88.532227
-76.579086
-65.819809
-56.361847
-47.582489
-38.551239
-28.600647
-17.604797
-6.059174
5.224548
15.564819
24.738129
33.114380
41.498962
50.832245
61.735657
74.293213
88.000000
101.964264
115.280121
127.353424
138.148376
148.196045
158.523285
170.356445
184.744293
201.946259
220.764221
238.289673
250.085205
251.217438
237.874634
208.754364
165.811768
113.860413
59.191071
7.817780
-35.875275
-69.706665
-93.378418
-107.818848
-114.416382
-114.692413
-110.206573
-102.593903
-93.538391
-84.676910
-77.364594
-72.498657
-70.418671
-70.975891
-73.695160
-77.950928
-83.076691
-88.413696
-93.236084
-96.807556
-98.468964
-97.787384
-94.721863
-89.612244
-83.026306
-75.534088
-67.514557
-59.088867
-50.228546
-40.852783
-30.944275
-20.571533
-9.929108
0.730377
11.172089
21.212585
30.858429
40.317322
49.919067
59.841827
70.028320
80.114929
89.625458
98.201050
105.855743
113.023682
120.533203
129.388306
140.458099
154.005188
169.077026
183.241730
192.666687
193.027130
180.860870
154.853333
116.526855
69.903351
20.447464
-26.511581
-66.894150
-98.410706
-120.471664
-133.662872
-139.193253
-138.533142
-133.187164
-124.606384
-114.323730
-103.868912
-94.691925
-87.987030
-84.534317
-84.456940
-87.340881
-92.332703
-98.412338
-104.614670
-110.023056
-113.882828
-115.561798
-114.633636
-110.949448
-104.714508
-96.449646
-86.807144
-76.388031
-65.589767
-54.543594
-43.221863
-31.492310
-19.332260
-6.916794
5.426346
17.350067
28.673187
39.559433
50.448822
61.847244
73.994980
86.759064
99.612045
111.962463
123.451767
134.075546
144.272812
154.814011
166.695206
180.802048
197.434937
215.698853
232.975388
245.064713
246.972733
234.531128
205.942932
162.725159
109.489990
52.647598
-1.448608
-47.936752
-84.182480
-109.615982
-125.017990
-131.883652
-131.974899
-127.078857
-119.047180
-109.674545
-100.568054
-92.915878
-87.472427
-84.433517
-83.710800
-85.029297
-88.059662
-92.429169
-97.629013
-102.995270
-107.655151
-110.735733
-111.553833
-109.738937
-105.408737
-99.033829
-91.363312
-83.210846
-75.219238
-67.712906
-60.563782
-53.141327
-44.636139
-34.448227
-22.590271
-9.769562
2.841751
14.236862
24.064148
32.817886
41.546646
51.321030
62.711777
75.662735
89.565277
103.627029
117.126862
129.590927
140.929504
151.631470
162.750793
175.671234
191.393478
209.548492
227.757660
241.835175
246.784515
238.367920
214.518448
176.109299
126.658966
71.420921
16.064720
-34.411674
-76.360878
-107.726471
-127.915192
-137.479004
-137.941315
-131.553329
-121.024147
-109.129395
-98.358215
-90.482254
-86.288612
-85.693062
-88.008247
-92.313324
-97.766312
-103.672829
-109.449913
-114.578506
-118.635437
-121.350471
-122.593964
-122.284561
-120.265045
-116.310631
-110.236160
-102.055130
-92.157097
-81.110542
-69.518402
-57.839775
-46.289513
-34.948921
-23.882156
-13.200512
-3.000895
6.731770
16.255751
26.017237
36.491577
48.059994
60.762550
74.219566
87.754677
100.598129
112.160881
122.335846
131.689850
141.443268
153.179581
168.159210
186.549423
206.710663
225.064423
236.637482
236.374756
220.703522
188.783920
142.977676
88.331184
31.212048
-22.279354
-67.539101
-102.138824
-125.617790
-139.005630
-144.038483
-142.652176
-136.621140
-127.616455
-117.235016
-106.997238
-98.339928
-92.341568
-89.612152
-90.127693
-93.379654
-98.542511
-104.711838
-111.081131
-116.995827
-121.875648
-125.101227
-126.045273
-124.185532
-119.286064
-111.594551
-101.842896
-90.957298
-79.706192
-68.506866
-57.307983
-45.796005
-33.804695
-21.494644
-9.361313
2.047081
12.424583
21.970276
31.346825
41.489906
53.160370
66.538864
81.124153
95.828102
109.396324
120.914513
130.271301
138.299576
146.633331
157.113647
171.064682
188.458710
207.361908
223.901398
232.915314
229.301193
209.571014
173.173843
122.946579
64.500320
4.759827
-49.858116
-94.774109
-127.795227
-148.871124
-159.407867
-161.407806
-157.011414
-148.252396
-136.994141
-124.956146
-113.689522
-104.423180
-97.942863
-94.564949
-94.066467
-95.962883
-99.604561
-104.382675
-109.712677
-114.944183
-119.282104
-121.807350
-121.629890
-118.200890
-111.539932
-102.261482
-91.349571
-79.801720
-68.308273
-57.124466
-46.101547
-35.003311
-23.643051
-12.083351
-0.527336
10.771782
21.696434
32.343567
43.061462
54.304855
66.514603
79.800598
93.903641
108.098145
121.431923
133.084503
142.757919
150.908813
158.813156
168.182571
180.586151
196.637726
215.232315
233.248795
245.996307
248.334229
236.184555
207.944885
165.140427
112.079811
54.809002
-0.539742
-48.928673
-87.274818
-114.444115
-130.888245
-137.975204
-137.469788
-131.176270
-120.795235
-108.032036
-94.661819
-82.483734
-73.148544
-67.817688
-66.838097
-69.701256
-75.258415
-82.121597
-89.117363
-95.427444
-100.631981
-104.430710
-106.443733
-106.185173
-103.151421
-97.046906
-87.951706
-76.455849
-63.548027
-50.386040
-37.981323
-26.870697
-16.915726
-7.384834
2.738342
14.308296
27.573967
42.082230
56.802582
70.518555
82.346031
92.070251
100.223877
107.918434
116.630272
127.766304
142.283417
160.139938
179.846115
198.263428
210.867783
212.710693
199.777679
170.440521
126.232742
71.694557
13.239700
-42.559662
-90.503433
-127.609192
-153.104385
-167.669128
-172.727600
-169.945160
-161.077789
-148.052612
-133.019836
-118.160751
-105.340607
-95.900421
-90.414871
-88.811829
-90.520538
-94.593384
-99.844856
-105.015724
-108.961235
-110.833221
-110.265701
-107.284134
-102.190048
-95.339653
-86.974350
-77.200104
-66.083908
-53.639786
-40.026741
-25.673065
-11.222336
2.604515
15.277870
26.760246
37.602318
48.727287
60.963310
74.606369
89.241196
104.020599
118.019493
130.734497
142.290253
153.285416
164.603302
177.209747
191.914215
208.976624
227.625854
245.524628
258.711700
262.358398
252.020020
225.198181
182.394684
127.286316
65.804718
4.682983
-50.119415
-94.505013
-126.604416
-146.603806
-156.111115
-157.426193
-152.967194
-144.930496
-135.154160
-125.151390
-116.213043
-109.378654
-105.359116
-104.445435
-106.480675
-110.904999
-116.869659
-123.339813
-129.201477
-133.443039
-135.293365
-134.388657
-130.805954
-124.906494
-117.122040
-107.735367
-96.799835
-84.337868
-70.562973
-55.937950
-41.141975
-26.827530
-13.338066
-0.613205
11.737373
24.281509
37.474014
51.505489
66.219887
81.169220
95.686386
109.189934
121.294052
131.975647
141.738831
151.578766
162.850586
176.814896
194.019852
213.491989
232.307480
245.857391
248.807434
236.725342
207.663818
163.035477
107.391342
47.241749
-10.772270
-61.384853
-101.502113
-130.167206
-147.914810
-156.086487
-156.292557
-150.225601
-139.692322
-126.623840
-113.041481
-100.776917
-91.234428
-85.151917
-82.596771
-83.077599
-85.779617
-89.777847
-94.139526
-97.956161
-100.418930
-100.933289
-99.229507
-95.337402
-89.454323
-81.809204
-72.489784
-61.560860
-49.245796
-36.032505
-22.734413
-10.107809
1.460152
12.196590
22.837765
34.221390
46.860580
60.592247
74.646416
87.980026
99.723373
109.506561
117.597389
124.751083
131.996597
140.415604
150.954681
164.175629
179.922623
196.896118
212.355362
222.306335
222.227631
208.344452
178.934448
135.228149
81.468094
23.822405
-31.190878
-78.352989
-114.644798
-139.380051
-153.508087
-158.750671
-156.918701
-149.612152
-138.348877
-124.753723
-110.597420
-97.704788
-87.657364
-81.538620
-79.697128
-81.811264
-87.003761
-94.057220
-101.714218
-108.837532
-114.546326
-118.166443
-119.140877
-117.031334
-111.610886
-102.972557
-91.587891
-78.265877
-63.953915
-49.511318
-35.592957
-22.549522
-10.481228
0.764012
11.696052
23.045300
35.586128
49.763279
65.415909
81.729134
97.516563
111.742065
123.940453
134.423843
144.181091
154.575806
167.083160
182.804092
201.911255
223.127396
243.314011
257.706787
260.936707
248.563034
218.666718
172.830307
115.886948
54.699219
-3.638171
-53.523895
-91.827660
-117.955734
-133.189224
-139.722870
-139.843750
-135.480118
-128.218658
-119.438286
-110.492050
-102.688683
-97.020264
-94.008163
-93.602402
-95.346901
-98.606598
-102.809402
-107.461990
-112.093521
-116.155472
-118.955414
-119.825546
-118.223900
-113.837669
-106.644707
-96.960785
-85.356262
-72.600998
-59.565601
-47.051422
-35.566223
-25.219685
-15.646736
-6.160709
4.082238
15.792219
29.305187
44.431229
60.466209
76.390686
91.179176
104.158653
115.269516
125.176468
135.190598
146.959259
162.012314
181.140381
203.594757
226.667587
245.701721
255.032669
249.501938
226.185440
185.598450
131.790588
71.372375
11.692780
-40.944649
-82.500214
-111.531235
-128.725433
-136.030075
-135.763748
-130.119934
-121.007401
-110.083145
-99.040764
-89.446411
-82.644325
-79.382019
-79.570297
-82.408813
-86.691605
-91.332611
-95.612404
-99.224289
-102.021408
-103.735886
-103.840317
-101.712433
-96.812614
-88.940323
-78.271065
-65.328606
-50.949493
-36.145634
-21.929287
-9.055553
2.206860
12.223103
21.835300
31.995026
43.342804
55.900043
69.150787
82.266907
94.447250
105.209457
114.455505
122.597649
130.532059
139.533752
151.046555
166.127716
184.657684
204.760910
222.779053
233.856415
233.163803
217.269913
185.313568
139.369568
84.072716
25.554756
-30.039368
-77.789703
-114.792564
-140.204285
-154.684692
-159.752380
-157.276031
-149.221893
-137.706757
-125.014633
-113.402420
-104.764465
-100.174934
-99.716423
-102.582054
-107.481071
-113.152641
-118.674271
-123.521423
-127.465439
-130.269974
-131.465027
-130.317963
-125.994812
-117.863983
-105.870102
-90.765701
-74.005127
-57.283600
-41.938568
-28.470322
-16.449692
-4.743507
7.866425
22.173332
38.183182
55.144653
71.915756
87.331039
100.723495
112.155045
122.457726
133.041397
145.567139
161.360962
180.718887
202.248734
222.612122
236.908661
239.754990
226.883194
196.594208
150.601807
93.763474
32.832359
-25.286545
-75.117249
-113.499710
-139.599731
-154.376938
-159.820068
-158.247620
-151.947784
-142.977005
-133.026810
-123.468048
-115.276505
-109.139565
-105.391197
-104.067001
-104.867989
-107.173782
-110.215675
-113.193390
-115.566948
-116.976479
-117.142487
-115.757622
-112.316040
-106.250435
-97.175461
-85.173363
-70.942726
-55.689995
-40.800812
-27.401222
-15.924644
-5.994553
3.470833
13.816780
26.112236
40.711746
57.125454
74.203339
90.565094
105.110382
117.365952
127.634628
136.964096
146.892715
159.215836
175.343170
195.578705
218.381973
240.056412
255.205963
257.999634
243.957275
211.569077
162.993118
103.597900
40.481880
-19.398342
-70.783684
-110.845703
-139.012695
-156.298798
-164.450638
-165.402618
-161.003021
-153.090530
-143.430130
-133.681473
-125.246887
-119.012489
-115.315536
-113.988129
-114.542175
-116.371689
-118.831596
-121.266922
-123.036987
-123.506836
-122.108154
-118.425385
-112.226120
-103.528328
-92.544594
-79.658592
-65.373352
-50.213230
-34.722721
-19.380009
-4.611111
9.208191
21.875633
33.387207
44.086067
54.618820
65.762207
78.087990
91.700462
106.110939
120.416969
133.716125
145.496643
155.938110
165.900742
176.722672
189.828064
206.158356
225.487045
245.823486
263.314575
272.709045
268.700867
247.563934
208.697861
155.139954
92.917435
29.427711
-28.560913
-76.349297
-111.865471
-135.267120
-148.067291
-152.339401
-150.157043
-143.527481
-134.406891
-124.704025
-116.053551
-109.642303
-105.953499
-104.849503
-105.758385
-108.022423
-111.141693
-114.768585
-118.683464
-122.513893
-125.631691
-127.146255
-126.051430
-121.546402
-113.236229
-101.294205
-86.514847
-70.137749
-53.560883
-38.008499
-24.224861
-12.171097
-1.063370
10.305511
23.072327
37.818893
54.247833
71.256302
87.353470
101.293121
112.545074
121.597305
129.865005
139.288757
151.716232
168.117081
187.981339
208.812180
226.218536
234.804153
229.470459
207.025024
167.412659
114.073090
53.105743
-8.265350
-63.530777
-108.209732
-140.344940
-160.212158
-169.433441
-170.153931
-164.536179
-154.566284
-142.105698
-128.932785
-116.660431
-106.545303
-99.275864
-94.979279
-93.382858
-93.942398
-96.042404
-98.974167
-102.026520
-104.426743
-105.482208
-104.658615
-101.579941
-96.014481
-87.875092
-77.246735
-64.464630
-50.268356
-35.742767
-22.035736
-10.003021
0.163483
9.025940
17.688721
27.356842
38.781830
52.009705
66.343231
80.691437
93.985443
105.650269
115.838989
125.421570
135.730072
148.205322
163.966095
183.219421
204.779541
225.624634
241.124542
245.938843
235.472290
207.595093
163.624207
108.228760
48.131042
-9.719849
-59.843658
-99.060272
-126.422699
-142.524017
-148.756592
-146.853333
-138.751007
-126.543274
-112.415955
-98.443085
-86.307678
-77.108643
-71.300385
-68.726837
-68.795593
-70.643921
-73.356659
-76.168610
-78.507416
-80.045258
-80.472137
-79.424805
-76.385406
-70.782166
-62.278320
-50.981750
-37.621429
-23.396332
-9.673248
2.527344
12.892578
21.974609
30.956543
41.123962
53.251068
67.238098
82.124542
96.449005
108.898560
118.831360
126.570007
133.352539
140.969269
151.220795
165.240356
182.898651
202.313080
219.824005
230.515839
229.294922
212.480408
179.058105
131.344604
74.581635
15.588043
-39.010315
-84.227295
-117.491760
-138.487549
-148.507507
-149.543915
-143.745728
-133.122406
-119.550323
-104.850494
-90.720215
-78.715210
-69.948730
-64.960602
-63.727539
-65.717560
-70.134766
-76.015656
-82.339813
-88.043335
-92.002319
-93.182434
-90.730835
-84.303864
-74.199005
-61.329376
-47.103882
-33.001434
-20.074646
-8.650543
1.771698
12.211884
23.757965
36.952209
51.591278
66.754181
81.223541
94.117523
105.258942
115.415955
126.065918
138.800446
154.638062
173.147217
192.028595
207.128143
213.302490
205.883057
182.215179
142.795593
91.354065
33.898529
-22.898865
-73.287140
-113.495300
-141.924744
-158.786743
-165.422028
-163.754913
-155.956116
-144.246216
-130.752289
-117.280151
-105.266174
-95.585175
-88.588074
-84.160675
-81.861450
-81.099243
-81.293945
-81.972626
-82.790436
-83.447998
-83.580017
-82.636475
-79.933868
-74.737671
-66.557556
-55.371521
-41.880035
-27.364502
-13.418549
-1.327179
8.401215
16.262756
23.617340
32.069763
42.772400
55.907562
70.660217
85.648560
99.543823
111.623413
122.057831
131.839752
142.488464
155.611786
172.275116
192.270691
213.529449
231.990692
242.182404
238.639496
217.670898
178.757935
125.118805
62.922729
-0.317291
-57.710663
-104.388885
-138.075439
-158.789948
-168.073212
-168.244751
-161.802246
-151.184448
-138.625885
-126.028870
-114.818848
-105.863098
-99.455322
-95.418488
-93.318909
-92.634888
-92.871307
-93.557800
-94.221710
-94.394257
-93.645111
-91.624908
-88.008209
-82.514404
-74.842499
-64.796448
-52.413513
-38.166656
-22.971802
-7.971497
5.837616
17.955200
28.609283
38.611389
49.036346
60.772034
74.059906
88.441559
102.857635
116.116516
127.289459
136.126160
143.166382
149.711304
157.476837
168.127716
182.588013
200.412994
219.245667
234.918365
242.170837
236.021484
213.305176
173.889679
121.047485
60.682709
-0.162323
-55.033722
-99.442413
-131.318634
-150.772430
-159.382263
-159.382812
-153.158875
-142.869904
-130.468048
-117.641785
-105.866150
-96.332397
-89.901855
-86.949890
-87.363220
-90.537598
-95.488373
-101.082031
-106.246582
-110.143585
-112.200806
-112.077484
-109.542938
-104.521545
-97.059631
-87.496002
-76.377899
-64.442657
-52.363708
-40.583466
-29.273621
-18.379578
-7.699921
2.977356
13.849640
25.128845
37.004486
49.667358
63.141571
77.230103
91.434326
105.069550
117.449493
128.158081
137.282135
145.677551
154.833221
166.495483
181.920532
200.988831
221.560303
239.487000
249.421326
246.239075
226.565704
189.815002
138.505249
77.651917
13.649139
-46.998108
-98.820770
-138.210785
-163.691559
-175.912842
-177.116028
-170.393494
-158.891663
-145.195526
-131.211700
-118.206268
-107.162598
-98.848877
-93.793488
-92.143463
-93.511322
-97.137909
-102.038300
-107.305817
-112.198151
-116.043457
-118.186569
-117.982758
-114.954620
-108.992157
-100.543381
-90.385498
-79.519714
-68.729752
-58.391907
-48.465805
-38.697510
-28.813278
-18.509842
-7.567139
4.298965
17.237442
31.196320
45.786957
60.396332
74.424255
87.541199
99.812469
111.534332
123.016891
134.358673
145.531174
156.709442
168.579559
182.231659
198.672668
217.747589
237.365097
253.390747
260.503662
253.776184
230.261139
189.980194
136.130707
74.157318
10.445938
-48.950851
-99.290939
-137.606644
-162.730499
-175.118027
-176.500397
-169.400345
-156.608093
-140.808487
-124.229736
-108.699646
-95.662415
-86.205170
-80.973969
-80.003189
-82.644028
-87.698563
-93.720215
-99.334610
-103.529739
-105.749802
-105.780914
-103.577835
-99.112717
-92.354736
-83.347855
-72.341187
-59.885223
-46.699432
-33.547974
-21.029327
-9.421494
1.337006
11.643463
22.050568
33.070480
45.050369
57.992249
71.555206
85.239548
98.467972
110.757431
121.836594
131.688522
140.651047
149.512756
159.477737
171.876038
187.520050
205.939316
224.768433
239.876801
246.220734
239.203812
216.189880
177.324112
125.570396
66.054863
4.837547
-52.285591
-100.654488
-137.302673
-161.084900
-172.512787
-173.286865
-165.828262
-152.724655
-136.478638
-119.287834
-103.024223
-89.249634
-79.025337
-72.893204
-70.811470
-72.274490
-76.423706
-82.268494
-88.784195
-94.938499
-99.848419
-102.749222
-103.001862
-100.172882
-94.055977
-84.735405
-72.635132
-58.519478
-43.325874
-27.990990
-13.197859
0.807079
14.220016
27.511116
41.186523
55.561077
70.544434
85.685577
100.291046
113.705841
125.594673
136.172150
146.338013
157.491547
171.109131
187.960205
207.407425
226.921844
242.270294
248.556915
241.600937
219.225296
181.764908
131.828903
73.503632
11.501221
-49.405014
-104.654892
-150.120193
-182.698914
-200.959839
-205.595001
-199.275803
-185.843063
-169.139359
-152.221039
-137.040237
-124.677917
-115.815491
-110.919754
-110.110245
-112.939117
-118.343887
-124.814911
-130.845947
-135.264709
-137.324188
-136.717407
-133.327484
-127.123993
-118.141510
-106.577057
-92.836029
-77.569077
-61.603409
-45.777939
-30.705292
-16.589325
-3.125763
10.369385
24.590759
39.930878
56.226837
72.948349
89.417358
105.198288
120.214676
134.590225
148.515518
162.219635
176.232330
191.386414
208.483398
227.462677
246.479309
261.698273
268.068481
261.036041
238.190552
200.086212
149.786652
91.661407
30.161255
-30.678467
-87.143158
-135.561188
-172.576416
-195.993561
-205.557831
-203.314636
-192.915802
-178.434357
-163.174561
-149.161469
-137.365967
-128.280609
-122.392456
-120.154449
-121.695343
-126.421600
-132.992126
-139.626404
-144.609009
-146.775177
-145.743134
-141.793610
-135.571899
-127.718323
-118.585175
-108.201935
-96.480591
-83.456085
-69.447144
-55.086792
-41.064362
-27.816101
-15.362244
-3.280945
9.121796
22.456757
37.043365
52.753632
69.099579
85.505188
101.501221
116.871185
131.653229
146.100403
160.563232
175.597809
191.965027
210.396393
230.906982
252.145630
270.927124
282.642181
282.479797
267.021820
235.351807
189.268280
132.622437
70.202423
6.854889
-52.863312
-104.844482
-145.639435
-172.962708
-186.265198
-186.934540
-177.939819
-162.907318
-145.236694
-127.536804
-111.625763
-98.792755
-90.017639
-85.949005
-86.678192
-91.573883
-99.296661
-108.098694
-116.209442
-122.143524
-124.944977
-124.277863
-120.207031
-113.052094
-103.197632
-91.013336
-76.915009
-61.493683
-45.580200
-30.005951
-15.439240
-2.116333
10.215668
22.141113
34.335571
47.292694
61.171570
75.664917
90.071625
103.504639
115.212799
124.982452
133.387390
141.834534
152.185699
166.054474
183.886719
204.298950
223.829590
237.550049
240.186279
227.618042
198.143311
153.089172
96.675934
35.007141
-25.290710
-78.452301
-120.494598
-149.590668
-165.848755
-170.700958
-166.299255
-155.011566
-139.144714
-120.821838
-102.098877
-84.945618
-71.073151
-61.778778
-57.673370
-58.593964
-63.666473
-71.536865
-80.580475
-89.169281
-95.800537
-99.256073
-98.709564
-93.909790
-85.188873
-73.406891
-59.721375
-45.276276
-30.858368
-16.724365
-2.712128
11.594543
26.527679
42.150879
58.208405
74.203369
89.644287
104.233246
118.145782
132.131042
147.374542
165.002808
185.336456
207.069977
226.925598
240.051727
241.254211
226.530701
194.429382
146.655792
87.752991
23.987823
-37.973083
-92.372528
-135.185577
-164.497681
-180.397797
-184.541138
-179.459137
-167.939758
-152.568787
-135.467560
-118.402191
-102.968292
-90.584381
-82.379211
-78.934052
-80.000519
-84.592682
-91.184601
-98.121643
-103.940979
-107.537201
-108.173126
-105.384857
-98.973206
-89.058380
-76.147217
-61.161316
-45.246368
-29.394318
-14.147034
0.581635
15.363831
30.929932
47.751282
65.770081
84.333923
102.433441
119.057953
133.577118
146.193298
158.006561
170.775513
186.291534
205.257202
226.366669
245.992584
258.785461
259.164490
242.970215
208.929443
159.047424
98.111389
32.538574
-31.044128
-86.983704
-131.361420
-162.345795
-180.045502
-186.174500
-183.328369
-174.377533
-161.971527
-148.234406
-134.882446
-123.269104
-114.379883
-108.784729
-106.489929
-106.930298
-109.180878
-112.200226
-115.110657
-117.271606
-118.333374
-118.063385
-116.203247
-112.436981
-106.346527
-97.641052
-86.331360
-72.882538
-58.115509
-43.079865
-28.636139
-15.197113
-2.632324
9.622345
22.278168
35.903412
50.782196
66.766052
83.322754
99.675568
114.930634
128.400421
139.900696
149.950638
159.834518
171.307388
185.904083
204.061386
224.309067
243.128098
255.454117
256.010132
240.857086
208.600250
160.954880
102.355255
38.952057
-22.691742
-76.869644
-119.600067
-148.914047
-164.879013
-169.169342
-164.446564
-153.761505
-139.982376
-125.532074
-112.269867
-101.521851
-94.126846
-90.455139
-90.385376
-93.344177
-98.428787
-104.542221
-110.525391
-115.276367
-117.845993
-117.580475
-114.205948
-107.918182
-99.230042
-88.856628
-77.513535
-65.714706
-53.742035
-41.704529
-29.587326
-17.450653
-5.471756
6.119095
17.128281
27.616943
37.903687
48.483551
59.759644
71.820297
84.330566
96.630966
107.993256
117.947296
126.514679
134.270691
142.281311
151.889420
164.351929
180.293335
199.033325
218.133499
233.391830
239.582306
231.853394
207.341782
166.329666
112.494873
52.006348
-8.098740
-61.654404
-104.552826
-135.130341
-153.708115
-161.839691
-161.528198
-154.792160
-143.508469
-129.551605
-114.822388
-101.205521
-90.390198
-83.555222
-81.222748
-83.161896
-88.508286
-95.976860
-104.075607
-111.400177
-116.812088
-119.551788
-119.209473
-115.695038
-109.188667
-100.130081
-89.111618
-76.793587
-63.753822
-50.402069
-37.020592
-23.886200
-11.348778
0.176003
10.445587
19.588531
28.218994
37.301872
47.745079
59.938423
73.628578
87.984695
102.008995
114.975029
126.653633
137.437500
148.174515
160.020676
174.149704
191.175278
210.577179
230.122849
245.842850
252.652084
245.672897
221.859680
181.194504
126.929840
64.931213
2.127892
-55.099304
-102.093491
-136.480377
-158.008026
-168.009125
-168.734589
-162.816406
-152.867767
-141.216736
-129.763367
-119.887672
-112.431808
-107.679451
-105.454552
-105.249947
-106.507591
-108.745079
-111.657928
-115.008835
-118.480888
-121.474365
-123.139137
-122.549805
-118.959732
-112.120461
-102.377213
-90.592972
-77.896141
-65.229134
-53.147137
-41.628174
-30.264133
-18.556967
-6.233704
6.596424
19.469618
31.830637
43.358852
54.146378
64.592667
75.263947
86.505310
98.253670
110.071564
121.349480
131.576569
140.674637
149.096817
157.849487
168.335938
181.958221
199.475983
220.210388
241.487366
258.666565
266.062317
258.530182
233.174103
190.497849
134.483780
71.586662
9.003876
-46.994164
-92.192818
-124.728645
-144.790558
-153.916534
-154.330978
-148.431519
-138.510818
-126.631485
-114.561844
-103.800346
-95.479668
-90.281593
-88.357529
-89.327682
-92.444588
-96.837051
-101.705849
-106.360535
-110.220764
-112.660400
-112.994904
-110.610077
-105.202431
-96.962967
-86.627678
-75.318611
-64.162003
-53.974777
-45.055046
-37.059181
-29.232948
-20.696541
-10.796402
0.593231
12.975113
25.415977
36.965187
47.153961
56.220291
65.008400
74.523140
85.346611
97.331192
109.659386
121.242653
131.253738
139.522736
146.625793
153.664200
162.065414
173.128143
187.563568
204.849335
222.765289
237.273590
243.166321
235.475220
211.106155
170.132370
116.081375
55.064430
-5.832962
-60.332764
-104.248970
-135.861115
-155.456390
-164.575638
-165.194321
-159.292923
-148.762360
-135.509003
-121.533485
-108.785843
-98.920975
-92.926025
-90.964409
-92.478516
-96.542824
-102.203735
-108.715088
-115.499626
-121.958099
-127.301422
-130.514465
-130.594696
-126.849586
-119.201660
-108.311134
-95.461342
-82.154915
-69.669174
-58.669914
-49.046097
-40.100578
-30.929512
-20.870590
-9.768669
2.044273
13.995560
25.551781
36.521164
47.096611
57.778717
69.136299
81.618965
95.328377
110.015327
125.101547
139.921844
153.977127
167.158936
179.941528
193.341370
208.581329
226.397354
246.247620
265.748047
280.741211
286.160919
277.508484
252.261841
210.761810
156.168457
93.684685
29.260933
-31.385658
-83.616417
-124.257484
-151.817413
-166.552994
-170.304993
-165.972626
-156.794647
-145.631836
-134.547577
-124.800026
-117.110413
-111.995598
-109.803482
-110.670364
-114.342941
-120.168663
-127.277069
-134.763824
-141.811127
-147.779373
-152.063019
-154.057281
-153.179428
-149.026688
-141.569107
-131.248840
-118.914444
-105.617653
-92.369171
-79.850655
-68.339058
-57.671692
-47.398933
-36.911057
-25.661423
-13.358101
-0.126472
13.547157
26.990494
39.603165
51.174896
61.931877
72.460274
83.411232
95.235611
107.967255
121.274849
134.608810
147.388275
159.271454
170.337341
181.183792
193.012695
207.292358
225.104736
246.295441
268.701843
288.107025
299.066895
296.581238
277.641052
242.132690
192.733246
133.919617
70.815475
8.343845
-49.076946
-97.606995
-134.260941
-157.407516
-167.331512
-166.295532
-157.920578
-146.092163
-133.869263
-123.016823
-114.230148
-107.742592
-103.849876
-102.934898
-105.238182
-110.461479
-117.655067
-125.497604
-132.588501
-137.808258
-140.517548
-140.442398
-137.555267
-131.958923
-123.920609
-113.841888
-102.290634
-89.949097
-77.486816
-65.368484
-53.748920
-42.509552
-31.321678
-19.889488
-8.096710
3.920998
15.830643
27.356575
38.465717
49.461651
60.853432
73.055763
86.159843
99.737228
113.002869
125.147972
135.690552
144.770721
153.271118
162.660019
174.544891
190.002106
208.728729
228.436676
244.938385
252.947906
247.599579
225.930389
187.817108
136.100754
75.804245
12.947021
-46.637772
-98.156906
-138.408875
-165.951324
-181.037170
-185.308640
-181.285339
-171.686554
-158.973938
-145.045410
-131.354263
-119.190582
-109.715424
-103.898163
-102.222260
-104.506836
-109.906952
-117.145538
-124.885666
-131.906921
-137.232376
-140.080978
-139.868652
-136.258896
-129.257568
-119.360397
-107.441605
-94.470078
-81.232132
-68.115555
-55.082062
-41.952896
-28.625778
-15.180786
-1.713364
11.852234
25.821106
40.578720
56.289383
72.740494
89.335373
105.415787
120.611450
134.891739
148.470917
161.613373
174.573929
187.800262
202.136795
218.662048
237.938797
258.964752
278.529358
291.629791
292.842346
278.284241
246.925156
200.855469
144.227600
81.984619
18.763351
-41.316574
-94.510773
-137.369904
-167.311707
-183.408676
-186.946609
-181.198257
-170.258377
-157.813080
-146.170044
-136.264618
-128.357864
-122.700226
-119.906998
-120.657135
-125.157761
-132.715759
-141.796249
-150.473373
-156.929474
-159.958496
-159.066147
-154.384583
-146.414154
-135.808365
-123.217590
-109.200012
-94.219116
-78.676376
-62.911667
-47.302673
-32.200256
-17.869141
-4.317551
8.902252
22.508972
37.163712
53.144470
70.059219
87.067078
103.244659
118.071106
131.586792
144.233536
156.564911
169.018066
182.032806
196.275391
212.532410
231.161469
251.085648
269.196533
280.633362
280.149689
263.950531
231.075165
183.613708
125.836121
62.870300
-0.390930
-59.642822
-111.154480
-151.815277
-179.520416
-193.823273
-196.274811
-190.027130
-178.782928
-165.739227
-152.910767
-141.314941
-131.527893
-124.232635
-120.314026
-120.446198
-124.647949
-131.920013
-140.477631
-148.252960
-153.482697
-155.159180
-153.142120
-147.897675
-140.139465
-130.523621
-119.448883
-107.122925
-93.698914
-79.450714
-64.775208
-50.182098
-36.090363
-22.716125
-10.013977
2.379761
14.994690
28.419861
43.100891
59.140778
76.227081
93.671478
110.655609
126.497406
140.915344
154.122040
166.830170
180.152710
195.287872
213.034973
233.065338
253.363678
270.126953
278.471069
273.727661
252.913651
215.713577
164.584000
104.139526
40.082031
-21.856171
-76.687927
-120.668182
-151.684418
-169.381989
-175.019653
-171.068451
-160.433502
-145.872986
-129.675385
-113.783691
-99.943512
-89.725159
-84.282959
-83.919067
-87.964203
-94.938873
-103.023346
-110.558868
-116.427155
-120.035095
-121.171173
-119.729767
-115.523926
-108.365662
-98.170410
-85.219360
-70.162445
-53.992828
-37.805145
-22.461304
-8.393890
4.547424
16.896744
29.407379
42.653458
56.726471
71.152115
85.027100
97.375778
107.591446
115.783447
122.835648
130.298706
139.963196
153.248856
170.588623
190.855438
211.072540
226.718307
232.590973
224.127975
198.818130
157.079712
102.364044
40.357330
-22.373962
-79.775436
-127.320404
-162.433029
-184.460709
-194.285263
-193.785828
-185.352844
-171.446091
-154.425079
-136.495789
-119.728271
-105.993805
-96.753265
-92.717407
-93.648102
-98.420334
-105.322281
-112.589630
-118.799164
-123.079681
-125.015457
-124.377823
-120.913986
-114.294327
-104.276886
-90.983902
-75.087326
-57.728592
-40.339752
-24.162659
-9.872101
2.618668
14.102448
25.743378
38.603928
53.218414
69.407181
86.347595
102.966537
118.293503
131.820358
143.611786
154.333633
165.173401
177.592270
193.018066
212.121841
234.048599
255.883881
272.795074
279.083984
269.768433
242.275726
197.391510
139.205017
74.041595
9.019547
-49.424805
-96.657951
-130.302826
-150.330994
-158.557770
-157.895950
-151.537323
-142.305710
-132.384583
-123.339043
-116.357140
-112.209007
-111.198975
-113.022751
-116.925453
-122.035866
-127.754272
-133.900146
-140.425415
-147.011230
-152.807724
-156.469803
-156.589035
-152.028473
-142.326279
-127.806931
-109.725464
-90.321396
-72.749870
-60.608421
-56.940556
-62.968864
-77.104851
-94.856850
-109.919426
-116.211502
-110.020203
-91.268921
-63.349308
-31.596912
-1.165478
24.837288
46.009361
64.255074
82.558273
103.836922
130.102478
162.088928
199.029236
238.261551
275.028259
302.832397
314.728973
305.452606
273.364655
221.527145
157.124405
89.504059
27.531555
-22.511108
-57.818054
-78.800537
-87.906021
-88.365494
-83.321136
-75.449203
-66.936356
-59.494812
-54.383026
-52.297729
-53.261230
-56.702087
-61.621674
-66.948029
-71.852539
-75.906097
-79.090942
-81.501495
-83.037445
-83.212341
-81.140411
-75.859467
-66.673615
-53.549042
-37.198303
-18.995331
-0.600098
16.445831
31.029114
42.727600
51.774902
58.988953
65.549377
72.977142
82.371826
94.066284
107.728455
122.635406
137.837250
152.297302
165.079071
175.589691
184.150879
191.601898
199.149933
208.027008
219.014435
231.631042
243.366608
249.702271
245.081726
225.218933
187.792175
133.323090
65.891174
-7.374786
-78.179443
-139.434906
-186.870422
-219.443390
-236.610657
-240.145905
-233.829803
-221.280792
-204.358215
-183.531097
-159.261688
-132.956604
-107.071777
-80.723541
-55.451874
-36.236481
-27.918762
-31.252533
-42.856781
-57.467896
-69.964142
-76.810730
-70.202545
-48.128662
-16.599335
15.971771
45.054810
70.583832
94.648743
119.866150
149.022064
193.146942
257.177155
334.734039
412.979401
480.207458
528.294678
552.874023
554.020874
483.484650
337.984528
164.947083
18.826630
-80.204285
-139.901367
-174.989838
-196.344925
-209.578323
-217.202545
-212.728333
-195.139954
-172.404953
-154.602356
-146.094986
-145.290497
-148.156281
-151.319885
-153.080551
-146.958359
-131.519058
-112.382004
-97.004791
-88.655029
-86.216438
-86.816803
-87.986176
-88.389252
-83.805519
-73.212410
-60.125450
-49.276367
-42.883957
-40.404488
-40.200241
-40.758118
-41.139259
-39.022766
-33.741596
-26.936783
-20.983704
-17.126453
-15.345104
-14.998760
-15.387955
-15.913151
-15.492641
-13.653095
-10.873795
-8.102242
-5.978310
-4.752590
-4.374168
-4.640823
-5.222317
-5.836983
-6.243008
-6.294155
-5.929165
-5.174664
-4.106388
-3.024342
-2.457359
-3.065052
-5.119255
-8.073368
-10.094257
-8.528145
-0.864037
13.918827
34.334202
56.593796
75.681473
86.963524
87.918747
78.730209
61.797626
40.580242
18.795877
-0.006559
-12.495146
-15.810659
-8.598852
8.085302
30.396446
52.327423
67.709167
72.342560
65.562988
49.695457
29.849838
10.543205
-5.619841
-18.064983
-27.300945
-33.846432
-37.742710
-38.630920
-36.538952
-32.216549
-27.232002
-23.119303
-20.888472
-20.471304
-20.842737
-20.556276
-18.392469
-13.995430
-7.949738
-1.724972
3.113121
5.641281
5.922165
5.012207
4.404846
5.399628
8.639103
13.994026
20.711346
27.623188
33.242245
35.929462
34.154339
27.201237
15.796947
2.376755
-9.581665
-16.999825
-18.740974
-16.354164
-13.520584
-14.288086
-21.191055
-34.068893
-50.328644
-66.257561
-78.555336
-85.340698
-86.209541
-81.734093
-72.841652
-60.605888
-46.210564
-31.090973
-16.973633
-5.478531
2.215080
5.734428
5.531067
2.640976
-1.601608
-6.003838
-9.769905
-12.572182
-14.408279
-15.571434
-16.244125
-16.536003
-16.328964
-15.479576
-13.820618
-11.330864
-8.188667
-4.717880
-1.492340
0.874214
1.847191
1.147781
-1.060135
-4.187744
-7.383804
-9.867378
-11.055756
-10.883957
-9.597523
-7.720798
-5.796017
-4.214779
-3.064533
-2.008232
-0.554939
2.244537
7.113392
14.425209
23.783749
33.904324
42.796783
48.083500
47.773369
40.937122
28.212997
11.728168
-5.319633
-19.571312
-28.377487
-30.412201
-26.002930
-16.681786
-4.675915
7.743570
18.744259
27.125498
32.320473
34.238518
33.138527
29.537058
24.181839
17.948242
11.837622
6.772123
3.345375
1.707369
1.529320
2.205507
3.075418
3.802904
4.358196
5.019636
6.239710
8.296789
11.205164
14.681068
18.300211
21.576159
24.182613
25.925705
26.779108
27.071800
27.216339
27.741428
29.172913
31.949593
36.235332
41.894344
48.486092
55.396709
62.191040
68.542603
74.481369
80.344177
86.738022
94.207329
102.922287
112.439674
120.005165
122.612404
117.072144
100.915344
73.290077
35.488365
-9.047646
-55.566299
-98.995842
-135.120941
-161.073792
-175.891968
-180.160553
-175.482208
-163.868530
-147.376328
-128.028778
-107.889908
-89.061417
-73.324081
-61.953522
-55.351212
-53.023865
-53.896561
-56.759750
-60.683838
-65.046906
-69.340973
-72.898941
-74.944687
-74.748428
-71.932709
-66.587311
-59.134140
-50.145142
-40.062668
-29.165146
-17.692398
-5.891113
5.859711
17.102600
27.532379
37.126526
46.222313
55.366310
65.098557
75.649971
86.784828
97.846962
108.071022
116.953255
124.440903
130.897079
136.869019
142.961548
149.686127
157.506912
166.536850
176.033890
183.950729
186.881378
180.734467
162.090332
129.611526
84.919632
32.392975
-22.129044
-73.026550
-116.232651
-149.613419
-172.710266
-186.087769
-190.870193
-188.480164
-180.486877
-168.761780
-155.421860
-142.511185
-131.594711
-123.536026
-118.524246
-116.160934
-115.654877
-115.763168
-115.412842
-114.046448
-111.772003
-108.872162
-105.494003
-101.460724
-96.317551
-89.590912
-80.393402
-68.438171
-54.495522
-40.318176
-27.516380
-17.161789
-9.674095
-4.852791
-1.984985
0.983284
5.827881
13.216072
22.129272
31.293198
39.560722
46.185181
50.923820
54.086842
57.769241
63.972183
74.077446
87.228554
101.864967
115.752647
126.187889
130.001526
116.035988
78.203239
22.348993
-35.925201
-84.306351
-116.676880
-132.194687
-133.096588
-123.578186
-108.817657
-92.520378
-77.958282
-62.937378
-47.903625
-34.590019
-25.368614
-21.112610
-20.803040
-22.042267
-20.803146
-13.344147
7.082596
38.570557
77.464363
118.883118
159.886993
200.303528
241.706253
286.596161
310.650818
301.699402
266.636536
222.936035
181.944855
146.866180
117.316696
92.430878
72.131271
56.657394
50.045212
53.587326
64.233582
74.902611
77.968956
67.897263
42.882210
5.838654
-36.587418
-73.364655
-96.723732
-105.268288
-103.351463
-97.067528
-90.986366
-87.050583
-84.957138
-83.708199
-80.944473
-76.204651
-71.031250
-67.578575
-66.509911
-66.824928
-66.955803
-65.689484
-63.063309
-59.146347
-54.900101
-51.822197
-51.192299
-52.933083
-55.547768
-56.813164
-54.774704
-48.663055
-38.914146
-27.442574
-16.889919
-9.460926
-5.900318
-5.301689
-5.857544
-5.786827
-4.184700
-1.115990
2.694160
6.602249
10.316536
13.878273
17.383720
20.642097
23.199783
24.596115
24.874542
24.147881
23.034569
22.102676
21.540359
21.124390
20.406311
19.205132
17.600258
16.071739
15.196678
15.515289
17.268166
20.325439
24.104759
27.487434
28.905716
26.664230
19.520020
7.388611
-8.320114
-24.905754
-39.201492
-48.546349
-51.639931
-48.706139
-41.142265
-30.855591
-19.603767
-8.612976
1.394508
9.994621
16.852089
21.703827
24.396530
25.004005
23.928322
21.849876
19.615921
17.957573
17.235306
17.428047
18.229568
19.341171
20.740013
22.734375
25.805931
30.384109
36.480148
43.592522
50.854149
57.393028
62.679909
66.728218
69.985840
73.093323
76.569550
80.500946
84.419601
87.537453
88.852974
87.600960
83.354469
76.446198
66.897026
55.207573
42.168293
28.690865
15.565685
3.192688
-8.792301
-21.364061
-35.839325
-53.079777
-72.983902
-94.147285
-114.175690
-130.264084
-140.078415
-142.273315
-136.820633
-124.853989
-108.365494
-89.528137
-70.399376
-52.542847
-36.977043
-24.239773
-14.498823
-7.695677
-3.586847
-1.618120
-1.053503
-1.096388
-1.148306
-0.876064
-0.342964
0.283840
0.939861
1.723763
2.956955
5.180092
8.843338
14.215305
21.113503
28.970238
36.850655
43.784866
49.056755
52.641663
55.089676
57.334251
60.198387
64.024414
68.508827
73.044914
76.942947
79.946854
82.319443
84.758713
88.158569
93.156738
99.734306
106.861588
112.429550
113.569084
107.207886
91.197433
64.943008
30.079376
-9.842438
-50.222839
-86.620132
-115.725998
-135.871979
-146.883926
-149.606232
-145.386490
-135.779663
-122.322952
-106.624374
-90.248947
-74.679611
-61.178055
-50.621872
-43.458237
-39.756027
-39.137726
-41.022827
-44.650177
-49.256500
-54.042847
-58.236404
-61.033249
-61.621078
-59.357132
-53.978607
-45.802185
-35.667755
-24.696960
-13.883484
-3.727539
5.847290
15.402725
25.536789
36.625732
48.543045
60.804718
72.689056
83.607025
93.279785
101.934845
110.368652
119.799225
131.407288
145.702026
161.803955
177.138336
187.621216
188.815552
177.206177
151.387878
112.772522
65.241089
14.158264
-35.011047
-77.836029
-111.427155
-134.531342
-147.264801
-150.833435
-147.078186
-138.092468
-125.881256
-112.216705
-98.619720
-86.390656
-76.596588
-69.950928
-66.850800
-67.021484
-69.598480
-73.452362
-77.623993
-81.646729
-85.368622
-88.613129
-90.871033
-91.781494
-90.850098
-87.676239
-82.047333
-74.154907
-64.539124
-53.777069
-42.202728
-29.806610
-17.523865
-6.127594
4.148529
13.750854
23.337952
33.331757
43.867432
55.058167
67.291718
79.413666
90.698059
100.906158
110.044220
117.186737
119.695953
113.739716
95.663147
63.446136
15.042419
-48.775177
-123.725311
-202.374054
-275.927490
-336.537933
-379.114746
-402.283020
-393.188782
-347.742279
-272.637299
-184.035034
-99.273376
-28.910187
24.854721
64.649033
94.001801
115.625000
128.881683
133.476654
130.930893
124.726074
118.802521
115.704010
115.998856
118.540161
121.692276
122.266129
118.342529
110.233734
100.386108
91.997131
87.341888
86.823593
89.206482
92.413513
93.497452
90.592636
83.814163
75.103363
67.107201
61.983124
60.865715
64.020882
70.807602
78.825699
84.203056
82.308105
69.229439
43.597305
7.831039
-32.026886
-67.946152
-92.899208
-103.406242
-100.228775
-87.370232
-69.782455
-51.454735
-34.456528
-19.410934
-6.403091
4.160294
11.407776
14.515266
13.127419
7.902313
0.287628
-7.630814
-14.049965
-17.836823
-18.770554
-17.576866
-14.923721
-11.626465
-8.141396
-4.519638
-0.593491
3.737701
8.309753
12.623688
15.972267
17.848656
17.961700
16.786926
15.050682
13.537636
12.615906
12.096657
11.449005
10.242287
8.619942
7.245377
7.041939
8.460426
10.792236
12.272385
10.391457
3.155792
-10.140617
-28.303913
-48.795265
-68.225113
-83.439774
-92.146812
-93.230316
-86.836502
-74.115227
-57.134197
-37.962963
-18.986443
-2.224922
11.075565
20.583874
26.758114
30.320938
31.960270
31.986778
30.566971
27.795437
24.125937
20.317205
17.233948
15.565414
15.628317
17.226215
19.853580
22.893328
25.768368
28.080694
29.626888
30.349133
30.447876
30.167391
29.772308
29.385189
28.960846
28.337818
27.293341
25.738064
23.743526
21.568993
19.654741
18.543081
18.845850
20.896973
24.466654
28.256676
29.958328
26.802483
16.595068
-1.260273
-25.090242
-51.223930
-75.053101
-92.264183
-100.234962
-98.613510
-88.948555
-73.911690
-56.481804
-39.164276
-23.793049
-11.456528
-2.430025
3.335472
6.156506
6.432312
4.651909
1.237949
-3.384422
-8.795483
-15.840950
-24.168720
-32.868141
-40.658024
-46.170921
-48.282406
-46.419128
-40.665768
-31.816719
-21.101761
-9.644371
1.574463
12.072495
21.955246
31.694641
41.859383
52.721603
64.074532
75.277473
85.676743
94.712807
102.286972
108.935753
115.809921
124.250504
135.267639
148.824860
163.326843
175.666489
181.529327
176.546143
157.630447
124.158798
78.377335
25.038559
-29.806755
-80.206680
-121.521744
-151.197052
-168.701569
-175.092606
-172.309875
-162.604858
-148.151291
-130.966614
-112.900269
-95.656212
-80.751572
-69.313896
-61.974709
-58.776367
-59.221909
-62.499847
-67.665703
-73.739197
-79.615494
-84.051315
-85.734123
-83.598907
-77.250298
-67.095665
-54.310181
-40.360748
-26.508446
-13.383339
-0.978920
11.205322
23.783249
37.227158
51.601959
66.507202
81.180763
94.720459
106.460281
116.305763
124.991882
133.912292
144.614716
157.945435
173.254623
188.090424
198.444794
199.698685
187.949005
161.336487
120.874107
70.428741
15.818634
-36.686745
-81.859840
-116.497574
-139.557953
-151.543457
-153.795349
-147.967331
-135.918900
-119.821136
-102.255692
-85.897720
-73.034256
-65.012482
-61.994583
-63.090820
-66.860519
-71.766769
-76.629822
-80.768204
-83.869171
-85.890305
-86.752960
-86.165985
-83.533295
-78.140701
-69.490143
-57.687210
-43.684387
-28.973251
-15.081741
-2.978851
7.332581
16.652466
26.135193
36.691605
48.586243
61.340012
74.038925
85.684158
95.562042
103.528305
110.019562
116.049942
123.008545
132.387329
145.092316
160.852905
177.618469
191.532593
197.655273
191.291534
169.662216
133.055725
85.066956
31.604416
-20.780640
-66.533310
-102.295670
-126.885330
-140.802231
-145.456161
-142.507965
-133.683441
-120.793076
-105.766525
-90.576950
-77.058777
-66.644760
-60.124268
-57.671906
-58.832825
-62.703110
-68.163467
-74.083954
-79.455627
-83.455902
-85.349991
-84.536957
-80.657990
-73.759399
-64.306305
-53.137970
-41.169922
-29.138123
-17.491272
-6.439056
3.824860
13.067047
21.265167
28.728394
36.179352
44.493439
54.278839
65.482849
77.354858
88.732941
98.534973
106.208069
111.813232
115.979401
119.804626
124.593994
131.665894
142.038330
156.009521
172.616547
189.333252
202.235046
206.665253
198.517212
175.518707
138.161621
89.925629
36.416748
-16.069092
-62.204224
-98.692200
-124.533325
-140.414520
-147.774292
-148.088196
-142.603241
-132.593109
-119.670135
-105.769073
-92.926392
-82.846039
-76.495605
-74.064789
-75.105652
-78.818298
-84.311340
-90.692780
-97.100067
-102.581543
-106.172729
-106.865509
-103.942535
-97.277924
-87.478882
-75.792542
-63.753143
-52.539520
-42.537720
-33.348572
-24.104218
-14.083160
-3.137878
8.337708
19.716309
30.517303
40.741241
50.755798
61.017609
71.849243
83.245483
94.940125
106.519501
117.607025
127.916321
137.452911
146.548920
155.996429
166.929016
180.374908
196.501740
213.916992
229.350098
238.067200
235.139832
217.037201
183.017395
135.766846
80.620819
24.078339
-28.003113
-71.618927
-104.926056
-127.804688
-141.097595
-146.010925
-143.886322
-136.315948
-125.155212
-112.427948
-100.053741
-89.615051
-82.108185
-77.967743
-77.202820
-79.436462
-84.046753
-90.240784
-97.103973
-103.748657
-109.281830
-112.772552
-113.400970
-110.614960
-104.398102
-95.385223
-84.758240
-73.862061
-63.722778
-54.727783
-46.591095
-38.619049
-30.119141
-20.690674
-10.350861
0.489563
11.327515
21.850250
32.102539
42.439758
53.354614
65.099945
77.580109
90.261902
102.474426
113.789429
124.248474
134.364899
144.910675
156.740295
170.470276
186.206177
203.121124
219.000183
230.120560
231.795914
219.726379
191.720245
148.828613
95.419067
37.984680
-16.804581
-63.770035
-100.099182
-125.136063
-139.641403
-144.882294
-142.371155
-133.795746
-121.138412
-106.628860
-92.499115
-80.556244
-71.911728
-66.976349
-65.584778
-67.227951
-71.316681
-77.188904
-84.124878
-91.275284
-97.485519
-101.499924
-102.283432
-99.363297
-93.008423
-84.102173
-73.709946
-62.721573
-51.610474
-40.508911
-29.404083
-18.307571
-7.306107
3.519073
14.124512
24.455338
34.468582
44.072571
53.253021
62.220947
71.317307
80.840439
90.775009
100.701584
110.092529
118.603729
126.395645
134.205673
143.104507
154.085968
167.613785
183.149841
198.810898
211.315765
216.447632
209.936844
188.903107
152.977600
104.805504
49.553841
-6.472534
-57.500336
-99.493858
-130.629852
-150.873810
-161.270187
-163.238007
-158.354614
-148.220551
-134.671051
-119.786957
-105.697899
-94.282867
-86.843506
-83.927162
-85.275879
-90.055603
-97.033554
-104.874977
-112.322884
-118.358330
-122.195641
-123.292076
-121.362534
-116.351791
-108.488350
-98.213959
-86.156204
-73.015015
-59.424080
-45.916080
-32.828171
-20.398886
-8.663727
2.504200
13.408377
24.498081
36.255219
49.007027
62.777409
77.271172
91.946579
106.225525
119.670937
132.119080
143.731201
155.038498
166.990692
180.838745
197.596802
217.193665
237.682404
254.949341
263.554199
258.272827
235.993347
196.841370
144.202332
83.637436
21.295006
-37.316750
-88.055801
-128.208511
-156.381668
-172.498627
-177.770569
-174.537689
-165.690887
-154.033203
-141.709000
-130.125519
-120.221207
-112.776367
-108.522919
-107.986816
-111.214920
-117.587448
-125.867523
-134.491730
-141.917221
-146.843735
-148.431076
-146.259491
-140.389236
-131.280914
-119.683868
-106.541306
-92.768234
-79.168961
-66.254684
-54.196762
-42.835510
-31.627136
-20.009979
-7.702530
5.130920
17.900711
29.985458
41.103531
51.607864
62.281189
73.922318
86.812256
100.598862
114.491821
127.726303
139.964905
151.512787
163.261444
176.367508
191.809402
209.647095
228.450821
244.941391
254.420837
251.888046
233.663452
198.748383
149.325699
90.300735
27.918228
-31.728836
-83.844696
-125.442123
-155.243378
-173.382050
-181.087219
-180.372040
-173.610565
-163.190033
-151.203461
-139.273911
-128.631027
-120.148102
-114.464249
-111.909393
-112.435684
-115.535461
-120.278534
-125.471863
-129.859100
-132.405838
-132.389862
-129.425659
-123.455170
-114.731873
-103.767044
-91.270493
-78.035172
-64.704971
-51.618683
-38.754501
-25.820312
-12.548370
1.091064
14.786713
28.089783
40.636887
52.384537
63.628784
74.824173
86.226257
97.750046
109.008041
119.556549
129.149704
137.869522
146.120392
154.588562
164.156464
175.789978
190.160583
206.970627
224.402527
238.794510
245.255005
238.965363
216.742004
178.367920
126.885712
67.883591
7.958954
-46.935501
-92.634796
-127.164093
-150.354385
-163.225952
-167.275543
-164.044739
-155.070312
-142.089417
-127.149124
-112.526535
-100.410477
-92.397308
-89.139145
-90.361481
-95.046066
-101.896545
-109.591537
-116.937607
-122.961853
-126.891724
-128.215393
-126.731354
-122.488312
-115.797745
-107.091904
-96.843475
-85.554092
-73.642792
-61.420029
-48.993698
-36.343750
-23.403137
-10.152496
3.333389
16.974930
30.800583
44.971252
59.605850
74.610779
89.570908
103.872818
117.099335
129.224319
140.747284
152.543839
165.550613
180.542480
197.759659
216.608704
235.241348
250.465485
258.012634
253.441010
233.531189
197.500183
147.639572
88.979385
28.101730
-28.566986
-76.120239
-111.925079
-135.648514
-148.583694
-152.864380
-150.709534
-143.986969
-134.262939
-123.023621
-111.865753
-102.443069
-96.176102
-93.821472
-95.292770
-99.791367
-106.147552
-113.191162
-119.888016
-125.343872
-128.722427
-129.314987
-126.677200
-120.880859
-112.451355
-102.132965
-90.598740
-78.228256
-65.166428
-51.598648
-37.992599
-24.909729
-12.906265
-2.143082
7.796600
17.704758
28.444031
40.561417
54.066833
68.429825
82.801971
96.339233
108.472336
119.150726
128.841553
138.483612
149.313019
162.477859
178.489838
196.642731
214.600372
228.452606
233.393524
225.006836
200.713165
160.858185
108.884003
50.571251
-7.487732
-59.420403
-101.256683
-131.236359
-149.546051
-157.605911
-157.424255
-151.120758
-140.760376
-128.270065
-115.402031
-103.709999
-94.449127
-88.438484
-86.034645
-87.075455
-90.896706
-96.512863
-102.728157
-108.411797
-112.632233
-114.643135
-113.986198
-110.466164
-104.235573
-95.731262
-85.676186
-74.830307
-63.740860
-52.656311
-41.496567
-30.058395
-18.212891
-5.989498
6.409851
18.683044
30.519257
41.743710
52.298702
62.331009
72.141678
82.051468
92.296066
102.836563
113.354523
123.458214
132.968292
142.189896
152.018066
163.639343
177.964066
194.950851
212.927155
228.516495
237.026657
233.685699
215.079529
180.569824
132.803604
77.165230
20.353203
-31.488255
-74.108917
-105.609528
-126.128067
-136.919144
-139.611328
-135.806107
-127.109261
-115.273621
-102.292343
-90.163239
-80.569748
-74.579208
-72.567810
-74.240005
-78.848579
-85.355576
-92.609558
-99.503510
-105.063797
-108.584885
-109.654648
-108.161629
-104.231354
-98.102089
-90.109100
-80.529495
-69.603439
-57.563667
-44.759308
-31.708878
-19.076584
-7.492690
2.710240
11.738001
20.283478
29.292236
39.519180
51.177559
63.888790
76.876259
89.343803
100.798279
111.183746
120.872879
130.524567
141.050629
153.350159
167.912567
184.256760
200.326263
212.491989
216.147430
206.970261
182.405930
142.820282
91.672752
34.713940
-21.515970
-71.325699
-110.959938
-138.893616
-155.450867
-161.971344
-160.224457
-152.132385
-139.709702
-125.159264
-110.743172
-98.448982
-89.606216
-84.680130
-83.335953
-84.783363
-88.125412
-92.481796
-97.028625
-100.977509
-103.562881
-104.144043
-102.438179
-98.433411
-92.333313
-84.425430
-74.998726
-64.357788
-52.859634
-40.864975
-28.716255
-16.756371
-5.326912
5.327301
15.097572
24.107811
32.719292
41.533340
51.144539
61.903015
73.650108
85.895287
98.026329
109.575294
120.335876
130.403076
140.340637
151.046509
163.702637
179.043762
196.842102
215.544403
231.983322
241.665283
239.830154
223.184692
191.042145
145.960922
92.601128
36.840134
-15.234222
-58.519798
-89.973907
-108.926582
-116.178421
-113.831848
-104.251106
-90.653381
-76.268784
-63.312164
-52.779755
-45.136566
-40.807320
-39.565575
-41.249069
-45.318367
-52.348167
-63.518425
-79.415482
-99.701805
-123.693825
-150.670166
-179.132568
-207.957947
-229.183670
-235.662964
-228.605652
-216.342743
-205.485596
-197.202332
-192.315475
-186.045425
-176.003479
-161.958832
-145.990173
-130.247543
-115.257675
-100.442322
-84.577576
-66.876526
-46.958038
-25.990967
-5.471390
12.444443
26.111435
35.604263
42.561096
49.095337
56.769501
66.920532
79.888428
95.472626
112.024689
126.512848
135.298218
135.265015
124.814941
104.690247
78.385193
50.762909
26.664642
9.142334
-1.010223
-4.463654
-2.175476
5.363739
17.879761
34.790985
54.231354
73.176208
88.076813
96.201843
96.720032
90.944458
81.700500
71.983337
63.913757
58.228577
54.517883
51.886902
49.743103
48.195190
47.956970
49.996704
54.851685
62.316345
71.473389
80.961365
89.549622
96.669861
102.434570
107.536865
112.842346
118.893433
125.770569
133.083618
140.308594
147.011902
153.037537
158.563965
164.044189
170.172852
177.873901
188.150879
201.677124
218.125732
235.644958
250.650208
258.519653
254.860931
236.881226
204.247253
159.027344
104.942627
46.342346
-12.568787
-68.002075
-116.617767
-155.653748
-183.216064
-198.815643
-203.518677
-199.777130
-190.696045
-179.249573
-167.691040
-157.429047
-149.351654
-144.083282
-142.125671
-143.717651
-148.520630
-155.429840
-162.762848
-168.720764
-171.871979
-171.581604
-168.034927
-161.809067
-153.462082
-143.240738
-131.147186
-117.224854
-101.898224
-85.926315
-70.222977
-55.324173
-41.186066
-27.182846
-12.391373
3.873413
21.673431
40.408356
59.076630
76.667130
92.594406
106.826538
119.765167
132.080170
144.529495
157.945145
173.314026
191.510132
212.586823
235.060532
255.554642
269.160034
270.816406
257.029877
226.921997
182.488617
127.804192
67.920616
7.909538
-47.602295
-94.834328
-130.983643
-154.596466
-165.864517
-166.576553
-159.512054
-147.706787
-133.734009
-119.448578
-106.094864
-94.590851
-85.824486
-80.592560
-79.515709
-82.686584
-89.588531
-98.930534
-108.814400
-117.019424
-121.490891
-120.921318
-115.041115
-104.497269
-90.558769
-74.690857
-58.197895
-41.996857
-26.578121
-11.939255
2.281048
16.638863
31.562286
47.188873
63.191498
79.125488
94.609390
109.499023
124.024811
138.646545
154.076431
171.079803
190.191376
211.167358
232.416870
250.732346
261.647491
260.792419
245.221375
214.421402
170.371872
116.675507
57.499069
-3.180161
-61.684402
-114.474457
-158.083282
-189.633011
-207.574432
-212.279297
-206.109436
-192.708038
-175.975891
-159.216476
-144.740524
-133.815674
-127.003998
-124.387665
-125.753937
-130.559662
-137.844666
-146.232727
-153.992035
-159.252869
-160.337677
-156.208069
-146.706238
-132.539795
-115.134583
-96.167145
-77.043884
-58.682953
-41.313019
-24.560852
-7.740845
9.748871
28.187347
47.325531
66.559174
85.146484
102.627228
119.011719
134.721802
150.365662
166.503510
183.636505
202.232025
222.647217
244.794800
267.435181
287.814056
301.774231
304.807098
293.569580
267.146484
227.295837
177.607452
122.064636
63.822906
5.117310
-52.096680
-105.223907
-150.820374
-185.317383
-206.433716
-214.216522
-211.166290
-201.308990
-188.807861
-176.760315
-166.851105
-159.769348
-155.778290
-155.083649
-157.781952
-163.481628
-171.077698
-178.884918
-185.068298
-188.107513
-187.034149
-181.439423
-171.449097
-157.531677
-140.536499
-121.567932
-101.884766
-82.515686
-64.066772
-46.619080
-29.901611
-13.487671
2.936401
19.589172
36.604797
54.036316
71.792908
89.624756
107.043274
123.618652
139.239868
154.340942
169.893616
187.101807
206.899841
229.512390
253.817383
277.083130
295.166138
303.385010
297.776733
276.447693
240.087952
191.555664
134.716492
73.370728
10.856995
-49.561340
-104.236877
-149.162354
-180.917236
-197.824219
-200.958618
-193.766113
-180.815247
-166.296692
-152.946533
-142.059509
-133.982117
-128.723267
-126.354370
-126.921997
-130.286438
-135.975647
-143.180725
-150.809021
-157.523621
-161.807312
-162.257690
-157.928894
-148.743347
-135.463074
-119.516541
-102.401978
-85.196716
-68.317017
-51.573547
-34.510193
-16.761597
1.721924
20.648315
39.486450
57.689270
75.009705
91.427612
107.192871
122.713501
138.569031
155.584534
174.625061
196.182251
219.554260
242.279968
260.141724
268.073730
261.636597
238.491211
199.109131
146.463989
85.129700
20.250366
-43.140808
-100.409912
-147.624084
-181.914307
-201.981567
-208.434998
-203.594849
-190.833618
-173.815430
-155.793518
-139.342712
-126.332458
-117.925415
-114.522400
-115.729248
-120.428162
-127.085358
-134.085999
-139.973114
-143.537170
-143.867950
-140.329529
-132.640167
-120.947693
-105.841156
-88.168854
-68.925140
-49.078094
-29.432587
-10.528442
7.499176
24.958527
42.406677
60.394592
79.162964
98.410400
117.425415
135.342529
151.487854
165.708832
178.535950
191.225739
205.608765
223.331970
244.939484
268.808594
290.841125
305.138397
305.766846
288.719666
253.185516
201.637604
138.732880
70.005768
0.852905
-63.841644
-119.837250
-163.667603
-193.239532
-208.383026
-210.995758
-204.484344
-192.669647
-178.748535
-164.860992
-152.252380
-141.638153
-133.642181
-128.731140
-127.056213
-128.204620
-131.261902
-134.965790
-138.070435
-139.554230
-138.725281
-135.185059
-128.717682
-119.151459
-106.447357
-90.866547
-73.108185
-54.364716
-35.969452
-18.979095
-3.774796
10.143982
23.878387
38.587357
55.004776
73.131958
92.253250
111.233932
128.928482
144.529953
157.925293
169.784088
181.646210
195.558823
213.323441
235.375412
259.847687
282.285400
296.533844
296.470215
277.980286
240.288834
186.122833
120.863876
51.080200
-16.865936
-77.722778
-127.732483
-164.748627
-188.198273
-199.007568
-199.363373
-192.261581
-180.834763
-167.783524
-155.137497
-144.235168
-135.938049
-130.716766
-128.665726
-129.411865
-132.149963
-135.735489
-139.026978
-141.075211
-141.327179
-139.590240
-135.876770
-130.243805
-122.760612
-113.469856
-102.447823
-89.874252
-76.010483
-61.282696
-46.197491
-31.284641
-16.937593
-3.228142
10.222494
24.170273
39.366379
56.177956
74.299004
92.772491
110.461197
126.525269
140.766754
153.708923
166.440842
180.376190
196.877670
216.742676
239.480133
262.788391
282.402924
292.773438
288.540833
266.150238
225.189072
168.750031
102.727280
34.307556
-29.676453
-83.978027
-125.578079
-153.602905
-168.847031
-173.098434
-168.573105
-157.555267
-142.324127
-125.218948
-108.630005
-94.807617
-85.407043
-81.126953
-81.568237
-85.457886
-91.132202
-97.026932
-101.921524
-105.050262
-106.063599
-104.869980
-101.500290
-96.071518
-88.625122
-79.142654
-67.671768
-54.482147
-40.298904
-26.109360
-12.756104
-0.434174
11.442902
24.018646
38.319824
54.480042
71.556549
87.902954
101.900665
112.850983
121.277557
128.646027
136.839630
147.466858
161.501801
179.176880
199.800873
221.523132
241.143280
254.199646
255.717651
241.609711
210.120392
162.720032
104.106445
41.003723
-19.612976
-72.162231
-113.391388
-142.375732
-159.826996
-167.231140
-166.292450
-158.684998
-146.160797
-130.712158
-114.484497
-99.585724
-87.801514
-80.227844
-77.112671
-77.847168
-81.227692
-85.819397
-90.446533
-94.401733
-97.458008
-99.501007
-100.182404
-98.764191
-94.342926
-86.296051
-74.696869
-60.402588
-44.762299
-29.136017
-14.454376
-1.073212
11.146118
22.624634
33.913483
45.614441
58.229187
72.035126
86.850067
102.056458
116.747467
130.098450
141.726593
151.920258
161.648834
172.362976
185.657898
202.686646
223.361542
245.725586
265.700531
277.690369
275.967896
256.419525
217.950958
163.214752
97.901398
29.345795
-35.293762
-90.448822
-132.916046
-161.806183
-178.045837
-183.701752
-181.296722
-173.365112
-162.273163
-150.046600
-138.358032
-128.459442
-121.027893
-116.126892
-113.373108
-112.106506
-111.723511
-111.907471
-112.487701
-113.301849
-114.079742
-114.177795
-112.770172
-108.900574
-101.671417
-90.639282
-76.070709
-59.056213
-41.334473
-24.764282
-10.574493
1.102875
11.278961
21.575867
33.393311
47.303223
62.962158
79.412048
95.603638
110.804871
124.705505
137.299500
148.942688
160.378784
172.796936
187.423462
204.689026
223.313843
240.086914
250.239807
248.803528
232.106812
199.027222
151.299622
93.154724
30.322632
-31.166626
-85.925903
-130.040955
-161.319214
-179.235535
-184.732117
-179.894592
-167.546326
-150.840271
-132.851807
-116.152954
-102.586609
-93.005920
-87.402222
-85.066467
-85.087219
-86.555908
-88.759583
-91.177673
-93.350220
-94.760254
-94.759583
-92.676880
-87.862793
-79.900085
-68.804993
-55.076965
-39.802795
-24.147034
-9.125549
4.772583
17.750549
30.525391
43.947754
58.643921
74.614319
91.179321
107.192078
121.449585
133.241882
142.725342
151.010071
159.904541
171.316956
186.610413
205.750793
226.865540
246.095093
258.267090
258.046814
241.572571
207.764465
158.925476
100.304199
38.606384
-19.757751
-70.001648
-109.500305
-137.559021
-154.652283
-161.848389
-160.430359
-151.955017
-138.320038
-121.656067
-104.142029
-87.701477
-73.851013
-63.513214
-57.194702
-54.919800
-56.314941
-60.604706
-66.705750
-73.345764
-79.160187
-82.782837
-83.031769
-79.098145
-70.852142
-58.893799
-44.559875
-29.398254
-14.706787
-1.076111
11.676575
24.330322
37.705872
52.381683
68.361084
85.132568
101.909698
117.901367
132.607117
145.968140
158.583557
171.519867
185.918884
202.267029
219.621155
235.416290
245.738770
246.329346
233.725037
206.233307
164.356934
110.773743
49.831879
-13.101379
-72.416016
-123.078461
-161.426147
-185.712280
-196.295349
-195.305481
-186.011139
-171.826355
-155.777893
-140.015030
-125.968857
-114.536850
-106.321060
-101.662994
-100.588150
-102.565704
-106.548492
-111.188904
-115.165070
-117.486069
-117.644577
-115.428925
-110.682373
-103.175018
-92.660309
-79.196350
-63.339203
-46.088562
-28.588928
-11.621872
4.677017
20.732635
37.139130
54.277740
71.969070
89.572403
106.253235
121.419586
134.908203
147.270615
159.598816
173.357285
189.882446
209.668671
231.705597
253.109131
269.356842
275.460236
267.392090
243.419250
204.436584
153.534866
94.825516
32.534634
-29.402538
-87.156387
-136.859039
-174.926514
-198.922028
-208.513947
-205.810898
-194.706543
-179.557510
-163.858795
-149.707794
-137.941162
-128.911209
-122.910416
-120.298920
-121.161514
-124.978012
-130.558685
-136.362473
-140.887238
-142.936920
-141.800095
-137.178406
-129.164825
-118.238701
-105.149811
-90.845695
-76.102432
-61.344666
-46.562042
-31.444969
-15.691208
0.771088
17.832016
35.212715
52.638229
69.909897
86.933670
103.562126
119.635307
135.036301
149.882004
164.703568
180.467499
198.204651
218.323318
239.801056
259.775238
273.783173
276.989441
265.672974
238.481537
196.706253
143.630112
83.313049
19.757004
-43.275772
-101.935211
-152.089615
-189.860672
-212.687195
-220.391922
-215.434921
-202.130066
-185.174698
-168.314560
-153.758926
-142.410934
-134.605225
-130.411072
-129.907288
-132.806274
-138.303680
-145.043594
-151.469284
-156.159302
-158.101257
-156.847748
-152.354721
-144.830551
-134.458038
-121.272446
-105.369797
-87.105499
-67.394196
-47.451950
-28.609985
-11.561905
3.850616
18.495651
33.444321
49.374039
66.298721
83.833405
101.474762
118.866791
135.853546
152.264130
167.917587
182.898773
197.843307
213.969040
232.295242
252.627686
272.535950
287.571350
292.366516
282.591003
256.474915
215.276703
162.461136
102.403366
39.263519
-23.198242
-81.264435
-131.002502
-168.583313
-191.166351
-198.167358
-191.619995
-175.624847
-155.018097
-133.984314
-115.278778
-100.321198
-89.742828
-83.920807
-83.125702
-87.199158
-95.235565
-105.497314
-115.768463
-123.857727
-128.158966
-127.936493
-123.176178
-114.458344
-102.669159
-88.822388
-73.895874
-58.728058
-43.776917
-29.078125
-14.335663
0.887939
16.880829
33.566284
50.541687
67.226074
83.063934
97.745758
111.259979
123.992340
136.813324
150.980164
167.695435
187.433044
209.074860
229.415131
243.702454
246.734619
234.544617
205.598938
161.163361
104.826050
41.592163
-23.106903
-84.032990
-136.574829
-177.053009
-203.242096
-214.708771
-212.936920
-200.936523
-182.448517
-161.144958
-140.028778
-121.224365
-106.164734
-95.704865
-90.236298
-89.641510
-93.270386
-99.938080
-108.105927
-116.084656
-122.238251
-125.224457
-124.076843
-118.269684
-107.881134
-93.546112
-76.503845
-58.219025
-40.119537
-23.124390
-7.466095
7.327240
22.044647
37.394440
53.747467
71.184296
89.556366
108.575500
127.776276
146.506378
164.107330
180.290497
195.552246
211.170685
228.606293
248.256104
268.424377
285.105835
292.861694
286.773193
264.137482
225.457123
173.765778
113.395081
48.644958
-16.729462
-79.119781
-134.570709
-178.823792
-208.022736
-220.272400
-216.654297
-201.242218
-179.798096
-157.910065
-139.458649
-126.125458
-117.849701
-113.824951
-113.313812
-115.883881
-121.058685
-127.970306
-135.183350
-140.932434
-143.586823
-142.148987
-136.455841
-127.035095
-114.783173
-100.661804
-85.412262
-69.568024
-53.241241
-36.440094
-19.057892
-1.095398
17.305786
35.876343
54.370087
72.568451
90.345337
107.561584
124.036652
139.617950
154.313477
168.414062
182.713440
198.361389
216.396820
236.934326
258.364777
277.058228
287.979431
286.159058
268.360657
234.165375
185.968231
127.873566
64.371857
-0.433411
-62.806946
-118.952393
-164.864594
-197.001068
-213.471527
-215.071289
-205.178802
-188.672211
-170.157867
-152.845886
-138.340546
-127.268433
-120.016815
-117.045868
-118.669769
-124.404144
-132.848206
-141.944000
-149.636841
-154.410095
-155.484009
-152.688446
-146.227203
-136.440857
-123.760834
-108.846771
-92.492096
-75.582397
-58.886780
-42.915070
-27.856293
-13.497559
0.713623
15.526428
31.592072
49.188782
68.045837
87.345520
106.013855
123.145874
138.328949
151.894104
164.856506
178.721130
195.125000
215.007294
237.751251
260.537567
278.581421
286.122284
278.320007
252.775208
210.151398
153.919739
89.079102
21.180481
-44.326538
-102.385803
-148.669434
-180.210632
-196.036377
-197.658051
-188.485138
-172.730301
-154.150467
-135.359558
-117.953125
-103.106018
-91.916458
-85.442123
-84.234543
-87.895416
-95.076965
-103.824341
-112.135040
-118.434753
-121.722733
-121.569016
-117.894333
-110.925079
-100.844345
-88.019363
-72.934921
-56.299225
-39.108444
-22.413284
-7.130203
6.368790
18.407745
29.890900
41.927612
55.245346
70.040009
85.742447
101.317871
115.633591
127.914856
138.104416
147.046753
156.355515
167.987244
183.487808
203.033798
224.774399
244.698181
257.386627
257.382324
240.705856
206.087006
155.341736
93.014481
25.382217
-40.798019
-99.431580
-145.948105
-177.799179
-194.501038
-197.374893
-189.078629
-173.029755
-152.818115
-131.762878
-112.622681
-97.442551
-87.471054
-83.095520
-83.862770
-88.603294
-95.708176
-103.542923
-110.708405
-116.266907
-119.691750
-120.726585
-119.217354
-114.934288
-107.665512
-97.320396
-84.098549
-68.617149
-51.825851
-34.835342
-18.669037
-3.923309
9.407829
21.925636
34.654877
48.657017
64.526199
82.178177
100.847443
119.368698
136.695465
152.299591
166.330048
179.602814
193.397766
209.083603
227.437042
247.959229
268.245911
284.000793
289.949341
281.210022
254.949402
211.277985
153.194870
85.932976
15.770306
-51.027584
-108.982437
-154.031326
-183.980377
-198.803787
-200.507065
-192.509430
-178.635757
-162.214905
-145.674759
-130.675201
-118.424530
-109.952591
-106.026581
-106.785873
-111.618164
-119.148941
-127.612404
-135.213455
-140.371918
-141.962494
-139.390594
-132.736603
-122.627121
-110.228088
-96.773842
-83.233299
-70.105087
-57.320831
-44.582180
-31.586100
-18.193529
-4.521349
9.048178
22.055189
34.208942
45.445694
56.178482
67.048782
78.737946
91.609131
105.543198
119.935410
134.114685
147.719742
160.905487
174.480103
189.579453
207.181763
227.427917
248.933136
268.480225
281.436188
282.819000
268.568573
237.105469
189.595749
129.845444
63.272675
-4.137527
-66.720741
-119.717056
-159.635925
-184.743835
-195.269165
-193.493805
-183.095322
-168.099899
-151.973297
-137.077576
-124.737953
-115.632378
-110.159462
-108.480385
-110.383186
-115.149849
-121.647415
-128.641403
-135.025818
-139.948639
-142.787506
-143.009735
-140.166489
-134.116913
-125.160286
-114.085793
-101.926437
-89.636292
-77.671234
-65.948898
-53.969513
-41.127472
-27.085861
-12.046021
3.299362
18.020508
31.364182
43.141006
53.841049
64.392059
75.826553
88.674133
102.839005
117.761017
132.695282
147.051941
160.532089
173.097488
185.019974
196.948578
209.896942
224.914948
242.289673
260.565094
276.116058
283.691772
277.789734
254.550354
213.210632
156.491058
89.874680
20.153397
-46.073807
-103.550140
-148.855881
-180.433411
-198.319611
-203.766678
-198.958054
-186.690582
-170.002304
-151.883286
-134.904678
-120.939133
-111.053162
-105.470947
-103.787109
-105.264664
-109.036270
-114.201981
-119.805344
-124.791611
-128.151566
-128.986649
-126.721741
-121.227081
-112.833679
-102.283691
-90.541504
-78.555634
-66.892731
-55.479584
-43.695984
-30.784790
-16.396515
-0.860962
14.759094
29.202057
41.616455
51.975983
61.049835
70.043884
80.119110
92.078217
106.042694
121.469513
137.301575
152.225830
165.174072
175.755707
184.725128
193.842072
205.249451
220.376343
238.782104
257.693268
272.293304
277.000122
267.039642
239.944397
196.332184
139.776184
75.936798
11.329071
-47.974701
-97.335999
-133.995483
-157.007294
-167.046173
-165.973541
-156.451233
-141.471710
-123.996735
-106.578735
-91.283600
-79.543762
-72.170288
-69.385071
-70.798126
-75.534058
-82.381226
-90.076050
-97.538269
-104.019623
-108.972443
-111.884277
-112.105438
-108.897461
-101.742218
-90.642822
-76.367889
-60.213165
-43.709198
-28.085358
-13.981812
-1.260712
10.819489
23.250732
36.918152
52.155304
68.561646
85.097290
100.506775
113.870392
125.026764
134.706848
144.295868
155.483154
169.658234
187.363678
207.672638
227.848022
243.441376
249.089386
240.014160
213.560486
170.302124
114.072128
50.945450
-12.391846
-70.117462
-118.230774
-154.678055
-178.987595
-191.723907
-194.132309
-187.925461
-175.118561
-157.981644
-138.933395
-120.410904
-104.611221
-93.225571
-87.050613
-85.887939
-88.707916
-94.048203
-100.485809
-106.860901
-112.258484
-115.812485
-116.663513
-114.056366
-107.576340
-97.408752
-84.337158
-69.466797
-53.925766
-38.558807
-23.763031
-9.535706
4.533157
19.080643
34.693497
51.604568
69.485016
87.539581
104.818756
120.686691
135.007782
148.162659
160.789154
173.650665
187.704208
203.948746
222.995605
244.274185
265.255066
281.400574
287.169922
277.812195
251.015167
207.751495
151.823059
88.588837
23.721436
-37.664291
-91.397278
-134.349915
-164.642929
-181.991455
-187.724731
-184.394836
-175.165222
-162.913147
-149.875427
-137.548782
-126.884995
-118.535011
-112.987434
-110.554657
-111.248322
-114.810577
-120.539932
-127.333809
-133.862350
-138.711243
-140.746094
-139.250977
-133.916336
-124.749321
-112.100456
-96.692749
-79.637619
-62.338779
-46.120323
-31.713161
-19.013050
-7.130402
5.088558
18.562737
33.752415
50.537266
68.411362
86.693230
104.609413
121.478043
136.903992
150.943481
164.291138
178.287384
194.456635
213.813080
236.065674
259.012146
278.585938
289.727417
287.785736
269.989014
236.203964
188.778961
131.627045
69.248878
6.020897
-53.989471
-106.792252
-148.738129
-177.202667
-191.372330
-192.720108
-184.570877
-171.002594
-155.586624
-140.803619
-128.067581
-118.269104
-112.112640
-110.115524
-112.275780
-117.799904
-125.235001
-132.903397
-139.381683
-143.767059
-145.612518
-144.785675
-141.134995
-134.455490
-124.612000
-111.728775
-96.321449
-79.362923
-62.068855
-45.521774
-30.281837
-16.174706
-2.340157
12.267097
28.361229
45.919800
64.211029
82.276825
99.358620
115.118515
129.701477
143.438828
156.803604
170.493622
185.600739
203.279663
223.995880
246.498871
267.295807
281.146332
282.680206
268.277679
237.308670
192.127945
136.897232
76.175934
14.082779
-45.825226
-100.036987
-144.939148
-177.294403
-195.093063
-198.504807
-190.057404
-173.937241
-154.746170
-136.408524
-121.554062
-111.451920
-106.454620
-106.261429
-110.210144
-117.154419
-125.585037
-133.764557
-140.094406
-143.464493
-143.352844
-139.838425
-133.305740
-124.156311
-112.764877
-99.455063
-84.647827
-68.865189
-52.522308
-35.820480
-18.762146
-1.279541
16.560669
34.386002
51.611191
67.701248
82.311142
95.377762
107.054810
117.705627
128.026672
139.065811
152.099518
168.279556
187.916626
209.897812
231.337891
247.966721
255.038757
248.590118
226.428726
188.664734
137.744492
77.870438
14.265579
-47.593765
-102.648468
-146.870773
-177.718994
-194.440811
-198.113388
-191.221832
-177.026443
-158.890320
-139.675507
-121.665085
-106.679535
-96.199493
-91.229401
-92.015610
-97.827026
-106.956650
-117.150528
-126.200455
-132.407867
-134.783096
-132.836594
-126.407486
-115.605682
-100.944839
-83.419617
-64.462219
-45.536514
-27.702835
-11.272491
4.161545
19.431854
35.259689
52.122772
69.989502
88.463562
106.882065
124.520370
140.795776
155.572983
169.442032
183.697784
199.986237
219.408203
241.401489
263.222687
280.139526
286.638000
278.127075
252.424133
210.236481
154.776062
90.777557
23.476837
-42.009735
-100.950653
-149.261795
-183.794159
-203.017029
-207.540573
-200.159348
-185.059021
-166.770538
-148.975998
-133.990433
-122.853333
-115.765320
-112.503860
-112.712006
-115.783234
-120.847321
-126.787766
-132.405731
-136.500580
-138.111725
-136.519501
-131.235123
-122.143890
-109.549881
-94.215118
-77.253021
-59.688705
-42.210037
-25.042084
-8.063065
8.933762
25.977173
42.951431
59.725739
76.279175
92.727310
109.179520
125.547607
141.708557
157.669373
173.867569
191.274582
210.957184
233.100983
256.108337
276.212646
288.067139
286.322174
267.397308
230.737167
179.107376
117.511154
51.766830
-12.736053
-71.590469
-121.447052
-159.796295
-185.063980
-197.016037
-197.008011
-187.903107
-173.357162
-156.781418
-140.760086
-126.954529
-116.407700
-109.867691
-107.904587
-110.488907
-116.786346
-125.168961
-133.609039
-140.290466
-144.026917
-144.181335
-140.490936
-132.883957
-121.503922
-106.857849
-89.983582
-72.262299
-54.995834
-38.981735
-24.244308
-10.220688
3.876923
18.792938
34.922760
52.330978
70.687531
89.371826
107.540421
124.390457
139.510635
153.213303
166.704468
181.759003
199.994781
221.990631
246.252594
268.964478
284.657043
287.604462
273.598846
241.236893
192.249039
130.874802
62.800629
-5.951324
-69.839600
-124.119675
-165.335800
-191.658051
-203.276062
-202.388458
-192.585632
-177.938095
-161.995270
-147.374512
-135.694855
-127.894562
-124.453873
-125.289581
-129.658264
-136.133118
-142.922577
-148.270050
-151.019653
-150.702911
-147.484497
-141.787842
-133.912766
-123.940086
-111.689079
-96.975220
-79.931183
-61.235481
-42.007690
-23.536797
-6.726044
8.264908
22.094193
35.931770
50.911949
67.527061
85.490364
103.896332
121.627831
137.828735
152.198395
164.983734
176.950531
189.300858
203.445465
220.589020
240.969986
262.972412
282.757477
294.910248
293.735657
275.159454
238.061081
184.777176
120.442062
51.732925
-14.613529
-73.001724
-119.517296
-152.229935
-170.983475
-177.025177
-172.564026
-160.421753
-143.660980
-125.387337
-108.535812
-95.603264
-88.216545
-86.872925
-90.839790
-98.436020
-107.576538
-116.243240
-122.960464
-126.932167
-127.986588
-126.347847
-122.342575
-116.176033
-107.832481
-97.285812
-84.632904
-70.418762
-55.498093
-40.622700
-26.215881
-12.130848
2.188000
17.325310
33.474609
50.418518
67.514145
84.035736
99.415749
113.363907
125.969818
137.904633
150.351074
164.777588
182.538391
203.943634
227.599274
250.106934
266.462219
271.191284
259.865540
230.361176
183.644409
123.801651
57.059517
-9.616966
-69.938873
-119.436234
-155.826599
-178.904938
-189.891998
-190.898438
-184.301178
-172.561935
-158.019012
-142.805603
-128.862152
-117.754395
-110.594734
-107.849319
-109.294395
-114.011894
-120.559486
-127.297874
-132.728851
-135.814758
-135.998901
-133.004501
-126.699982
-117.036835
-104.152168
-88.589066
-71.320557
-53.553528
-36.403778
-20.589249
-6.234360
7.013031
19.772888
32.821854
46.819077
62.167831
78.876465
96.454773
113.965927
130.321838
144.668228
156.705673
166.879013
176.286758
186.475677
199.226471
215.924286
236.724686
259.806641
281.027008
294.556763
294.444733
276.477966
239.604309
186.318710
121.941132
53.188492
-13.149612
-71.394501
-117.557770
-149.688812
-167.807220
-173.745316
-170.449097
-161.269547
-149.239212
-136.684937
-125.347290
-116.519821
-111.059738
-109.309357
-110.978439
-115.262680
-121.117065
-127.653610
-134.153397
-139.956650
-144.239838
-146.001938
-144.265594
-138.459045
-128.531967
-115.028992
-98.930252
-81.441238
-63.796646
-47.175919
-32.351471
-19.613663
-8.638779
1.428360
11.727615
23.278183
36.762680
52.250580
69.212585
86.781631
103.817886
119.192001
132.133438
142.560883
151.311386
160.046524
170.891205
185.766388
205.956848
230.888046
257.535950
280.705109
294.065430
291.848328
270.504547
229.778870
172.805969
105.820587
36.004257
-30.124969
-87.461823
-132.540085
-163.533676
-180.343018
-184.380600
-178.183060
-163.737213
-143.497284
-120.716278
-98.690659
-80.100372
-66.248978
-57.359573
-52.747391
-51.349792
-50.322296
-47.769699
-43.913864
-39.984985
-36.984985
-34.256439
-30.489120
-24.378433
-15.549866
-2.355515
14.927002
33.048599
47.701157
55.683792
57.454529
55.714020
53.766541
40.343658
11.435043
-26.424515
-63.118347
-92.843071
-114.131989
-125.155136
-125.904839
-115.932785
-95.934967
-64.593109
-19.932190
35.836082
99.779869
157.285324
193.911331
201.113129
179.037445
133.441147
75.243958
16.534027
-32.849625
-67.583748
-88.100945
-97.634102
-101.250397
-103.606010
-107.772873
-113.172424
-117.464417
-118.195946
-113.032028
-100.375107
-78.715897
-48.906075
-14.786629
17.687698
43.768448
61.253372
70.608009
74.242142
74.579987
73.394989
70.691277
65.349213
56.178589
43.418045
28.676834
13.904472
0.657852
-10.224770
-17.838196
-21.442184
-20.163422
-13.518600
-1.890228
13.087929
28.421242
40.822372
47.651901
48.297020
44.289734
38.470612
34.029465
33.520027
38.439293
48.615730
61.883171
74.087730
79.924126
74.864662
57.222359
29.522446
-2.105194
-30.249046
-49.377388
-57.761505
-57.743530
-53.713158
-49.591003
-47.081490
-45.504021
-43.314079
-39.557770
-34.773941
-30.526871
-28.359955
-28.794060
-30.954353
-33.137871
-33.445007
-30.910431
-25.812019
-19.596382
-14.266937
-11.491444
-11.913086
-14.734863
-18.083763
-19.761879
-18.328773
-13.597702
-6.815048
-0.155411
4.397728
5.626373
3.622829
-0.549786
-5.270203
-8.629719
-8.565319
-3.039246
9.343548
28.557858
52.490391
77.384705
98.999458
114.231232
122.442909
125.378349
125.837990
125.824097
125.466484
121.983238
111.911850
92.820808
64.696625
30.186436
-6.254280
-40.190670
-68.593918
-90.534187
-107.272911
-121.039932
-133.809769
-146.084000
-155.930756
-159.596436
-152.813217
-132.967285
-100.552048
-59.694092
-16.845028
21.295517
49.921257
67.485497
75.306419
76.104912
72.429688
65.541290
55.659702
42.855003
28.149250
13.692493
2.264957
-4.059147
-4.870766
-1.641365
2.928963
6.104668
6.433632
4.239693
1.204376
-0.480213
0.712593
5.103790
11.990303
20.083397
28.367836
36.008156
42.665230
48.354759
53.535583
58.974167
65.647400
74.438156
85.801140
99.412613
113.580505
125.369827
131.184341
127.571503
112.220215
84.877090
47.746048
4.627930
-37.534653
-72.033325
-94.049835
-101.734756
-96.272903
-80.855392
-59.344742
-35.042099
-10.258194
13.697433
35.648285
54.108475
67.138611
72.377609
67.750900
52.144165
26.182007
-7.421661
-44.300049
-79.656708
-109.356750
-130.867371
-143.356293
-147.472046
-144.672089
-136.793182
-125.665802
-112.918823
-99.895966
-87.386505
-75.407013
-63.399597
-50.598267
-36.552368
-21.254639
-5.112244
11.295746
27.495300
43.224976
58.540588
73.860168
89.858276
107.202393
125.999146
145.065247
161.532745
171.397888
170.605896
156.547852
129.146027
90.756805
44.960876
-4.963318
-57.221680
-111.342194
-166.935883
-222.132721
-272.869324
-313.472382
-338.591827
-345.491638
-335.278748
-312.522980
-283.491119
-253.654266
-226.113220
-201.244965
-177.877289
-154.610687
-130.737762
-106.502350
-82.675964
-60.092438
-39.270020
-20.355347
-3.271606
12.127319
26.388885
40.640045
56.526428
75.820679
99.914062
129.533875
164.480591
203.583954
244.326111
283.769470
319.314545
349.413025
373.726807
392.676880
406.883423
416.483643
421.035736
418.607605
408.048492
389.947662
366.455017
339.929138
311.731415
281.865173
249.799225
215.444550
177.016937
134.293762
89.016266
44.209595
2.422241
-35.633484
-70.820312
-104.461426
-137.351318
-173.750122
-216.155884
-264.009827
-314.039429
-362.557739
-407.474365
-448.494751
-486.241577
-521.626282
-561.339355
-610.287109
-668.458374
-729.841370
-785.026367
-825.370117
-845.980652
-846.846252
-796.261230
-681.431885
-512.849243
-321.574951
-140.625031
10.982758
129.293213
218.057556
282.553802
327.485107
351.542206
355.324402
343.586853
324.817078
307.506989
296.531311
292.196411
291.963287
292.729462
288.058594
274.541077
253.293335
229.345764
208.490219
194.378479
187.851089
187.736084
191.560181
192.896606
185.251770
164.211853
129.536407
85.497437
39.609924
0.315536
-25.674011
-35.750717
-33.450882
-25.222389
-17.179428
-12.467094
-10.975830
-10.728996
-9.686142
-6.726471
-1.824211
4.022667
9.953384
15.620872
21.098503
26.469574
31.526592
35.627571
37.983711
37.997204
35.560146
31.283134
26.447033
22.595032
20.993156
21.918400
24.592705
27.475296
28.941589
28.176102
25.535000
22.287601
19.967449
19.589725
21.164692
23.725243
25.913143
26.700951
25.756496
23.623108
21.259613
19.627190
19.509674
21.378777
25.387249
30.886387
35.859051
37.093369
31.301094
16.865250
-4.574497
-28.193783
-47.689941
-58.019691
-57.647926
-49.077511
-37.062553
-26.181171
-18.837276
-15.058922
-13.696442
-14.093620
-16.765396
-22.408096
-31.075775
-41.117886
-49.667576
-54.046494
-53.084030
-47.622799
-40.203098
-33.477123
-28.832310
-25.866131
-22.683018
-17.251659
-8.682102
2.224335
13.317581
22.257088
27.737144
30.104992
30.812572
31.638638
33.648285
36.804340
40.278049
43.095112
44.835918
45.738991
46.470875
47.541481
49.183090
51.358189
53.977669
57.160583
60.813828
64.235611
65.926056
63.764294
55.804138
41.535290
22.450512
1.730473
-16.803783
-30.207603
-37.443165
-39.338390
-37.920605
-35.594807
-33.899830
-33.493015
-34.580757
-37.230442
-41.360828
-46.426525
-51.006416
-52.992748
-50.832981
-44.056591
-33.898987
-23.033371
-14.580154
-10.870144
-12.881607
-20.442276
-29.942940
-38.866253
-45.239384
-48.036003
-47.168716
-43.101852
-36.583900
-28.422356
-19.382660
-10.077179
-1.228241
6.947952
14.651077
22.393871
30.711933
39.865593
49.626568
59.357510
68.330750
75.766830
81.615051
86.471390
91.388412
97.554993
105.911407
116.881210
130.088379
144.065063
155.900772
161.725815
157.360779
139.548462
106.978302
60.652706
3.332367
-61.540524
-130.691559
-201.294510
-270.279114
-333.812714
-387.314392
-426.534760
-449.106415
-455.641357
-449.755859
-436.824921
-422.141083
-409.068115
-398.314850
-388.133240
-375.503540
-357.584747
-332.915619
-301.976624
-266.963928
-230.982071
-196.892456
-166.492966
-140.200592
-117.447006
-97.414963
-79.631073
-64.205078
-51.513062
-41.729004
-34.327911
-28.030487
-21.111694
-11.851624
0.910706
17.499451
37.414917
59.818054
83.806335
108.893799
135.081726
162.802124
192.742310
225.872375
263.599915
307.401001
357.860046
413.177795
468.069580
514.096008
541.578430
542.784668
514.675415
460.058655
386.711609
304.920227
224.684082
153.845764
97.286560
57.188110
33.568054
24.757568
27.631775
38.011047
51.227966
62.959045
69.877502
70.065857
63.082214
50.021362
32.907837
14.075684
-4.524170
-21.744751
-37.204773
-50.803955
-62.230835
-70.826782
-75.715088
-76.265991
-72.276611
-63.960938
-51.763672
-36.227478
-18.063354
1.823242
22.375854
42.722656
62.534668
82.232300
102.725830
125.020996
149.815369
177.402405
207.545959
239.257812
270.341187
297.196045
315.153137
319.600220
307.647888
279.216064
237.015808
185.297729
128.236328
68.982849
9.737854
-47.286804
-99.030151
-141.690857
-171.817017
-187.737671
-190.329590
-182.733521
-169.108582
-153.235352
-137.765686
-124.111389
-113.130432
-105.638123
-102.551697
-104.413940
-110.851868
-120.217773
-129.804077
-136.594482
-138.170532
-133.535950
-123.352112
-109.428650
-94.026428
-78.939697
-65.034485
-52.240234
-39.925964
-27.463745
-14.671509
-2.000549
9.560791
18.809326
24.755432
27.200867
26.950867
25.801941
26.238159
30.704773
40.762817
56.219055
74.668823
91.574829
101.186951
97.961426
78.151489
41.326965
-9.290955
-67.427856
-125.295227
-175.529358
-212.798828
-234.145874
-239.393921
-230.389709
-209.658447
-179.661682
-142.725830
-101.424316
-58.939270
-18.983276
15.189697
41.066833
57.373474
64.561401
64.479797
59.388306
51.090759
40.591553
28.491028
16.529114
6.419678
-0.637024
-3.882690
-3.067444
1.068054
6.848022
12.331299
16.120178
20.377197
26.483032
33.824829
41.466797
49.527405
58.778748
69.726135
82.244751
95.795349
114.679077
139.689819
166.811584
191.816101
214.211975
236.059753
259.281250
283.491821
305.358093
327.058044
344.499756
347.199097
327.620789
288.215149
239.179199
192.789368
159.018799
143.500305
157.790466
202.186096
263.221069
323.482422
370.715515
398.239197
403.271240
386.818970
288.981506
112.152832
-80.394501
-227.909088
-315.883911
-359.122009
-376.642731
-381.518677
-380.432404
-376.244446
-360.210449
-331.098785
-298.446259
-272.928070
-257.863098
-250.677979
-247.092560
-244.015015
-240.043091
-227.247604
-204.402786
-178.843033
-158.927109
-147.455887
-142.568497
-141.031204
-140.234024
-138.824738
-131.523926
-117.542130
-101.575684
-89.020866
-81.785995
-78.966003
-78.915619
-80.408249
-82.688339
-82.553329
-78.218903
-69.934235
-58.407127
-43.705017
-26.108185
-7.029617
11.205719
26.334419
37.929314
46.043724
50.546875
51.143204
47.734108
40.545967
30.406181
18.864502
8.091980
0.173805
-3.712845
-3.633408
-0.717354
3.398827
7.365875
10.474754
12.598869
14.019417
15.428276
16.970879
18.887619
21.272377
24.018837
26.829575
29.278671
30.976555
31.663651
31.332260
30.085060
28.216774
26.123032
24.184441
22.836784
22.350998
22.537529
22.582123
21.150795
16.794006
8.795837
-2.386726
-14.941147
-26.142532
-33.176163
-34.206963
-28.832085
-18.039726
-3.667603
12.251579
28.006454
42.317200
54.455406
63.982407
70.688232
74.547478
75.776123
74.559891
71.220078
66.452454
60.447823
53.673943
46.488968
38.910126
30.584961
21.086441
10.215172
-1.517586
-12.863384
-22.517956
-29.453846
-33.588020
-35.622742
-36.578579
-37.085182
-37.114120
-36.129807
-33.696976
-29.914518
-25.446632
-21.203857
-17.917896
-15.689417
-13.918131
-11.627997
-7.878577
-2.442802
3.830069
9.058966
10.721516
6.679801
-4.095906
-20.820122
-41.220146
-62.096985
-80.306755
-93.471725
-100.082405
-99.463356
-91.622337
-77.232346
-57.806152
-35.655151
-13.611040
5.643944
20.082283
28.714184
31.632061
29.785229
24.584328
17.754204
10.951084
5.462471
2.015118
0.673252
0.997036
2.573818
5.195583
8.917797
13.827091
19.820057
26.349228
32.610874
38.173603
42.546635
45.656376
47.911987
50.037041
52.908508
57.172783
63.010002
70.118332
77.726990
84.822731
90.625061
94.850945
97.934692
100.986679
105.641975
113.365318
124.809639
138.865402
152.346008
160.495041
158.155502
141.324341
108.385071
60.633011
1.934479
-61.958099
-124.375946
-178.673187
-219.093521
-241.935654
-246.337173
-234.538437
-211.178848
-181.874557
-151.625320
-123.880280
-100.501053
-82.299789
-69.728577
-62.982574
-61.707748
-64.740158
-70.211670
-76.010849
-80.515640
-82.912888
-83.006546
-80.955383
-76.834534
-70.575607
-62.092178
-51.490891
-39.102722
-25.443970
-11.070282
3.513947
17.885773
31.774200
45.012497
57.633835
69.815491
81.769073
93.577469
105.074341
115.959366
125.984344
135.361526
145.006866
156.359955
170.793945
188.613800
208.208710
225.899414
236.754578
236.034363
220.875732
191.091827
148.800110
97.340515
40.208893
-19.250397
-77.477295
-130.131348
-172.282959
-199.402740
-209.008972
-201.779144
-181.514679
-153.964905
-124.928406
-98.886749
-78.407990
-64.498322
-57.197540
-56.041260
-60.081635
-67.836456
-77.273804
-86.127899
-92.493805
-95.154114
-93.822693
-89.010925
-81.686737
-72.786285
-62.894684
-52.198822
-40.660278
-28.276825
-15.304169
-2.222321
10.410919
22.283295
33.404572
44.122833
54.887146
66.088501
77.888672
90.159821
102.644623
115.230011
128.191284
142.240204
158.007843
175.278290
192.259064
205.353638
210.001617
202.113922
179.488220
142.501587
93.600189
36.234558
-26.036469
-89.503906
-149.875336
-201.867096
-239.780273
-259.144348
-258.534424
-240.433929
-210.666290
-176.371277
-143.920898
-117.536102
-99.116028
-88.920319
-86.317139
-90.126617
-98.612213
-109.516022
-120.370972
-128.994934
-134.009857
-134.915131
-131.850433
-125.299469
-115.759155
-103.732025
-89.910217
-75.233093
-60.787994
-47.638947
-36.477417
-27.399933
-19.981842
-13.376801
-6.622345
1.038940
10.004791
20.128662
30.741425
40.936188
49.847198
57.102051
63.161530
69.424011
77.962311
90.871674
109.300964
132.370117
156.781433
176.971375
186.535309
180.137695
155.303894
113.463409
59.679596
1.286377
-54.131042
-100.500244
-134.294403
-154.639282
-162.607544
-160.290497
-150.105347
-134.370422
-115.335220
-95.342010
-76.674530
-61.336288
-50.583282
-44.559875
-42.407928
-42.703445
-44.056969
-45.575607
-46.990562
-48.352669
-49.681374
-50.694778
-50.796349
-49.309837
-45.734707
-39.926613
-32.023979
-22.449816
-11.774092
-0.662878
10.238585
20.569584
30.268492
39.524750
48.638580
57.909489
67.520477
77.567856
87.998085
98.686707
109.658913
120.674530
131.364212
141.391434
150.808472
160.276733
170.862640
183.235672
197.171387
211.344513
222.775681
227.328827
220.966629
201.206238
168.202072
124.773956
75.189957
24.482712
-22.161163
-60.949738
-89.750336
-107.839279
-115.280899
-112.348145
-100.017670
-80.598587
-56.951004
-31.371017
-6.005722
17.525131
38.346024
56.422287
72.817612
88.503662
103.777222
113.049271
112.911789
103.505478
88.712021
73.255775
59.698982
48.354630
41.365578
36.052948
30.145279
23.041641
14.487236
3.944763
-9.516335
-28.288086
-52.398369
-81.975975
-115.002319
-147.293457
-173.793716
-191.065521
-198.136749
-196.065826
-189.134750
-177.956757
-162.455719
-143.174835
-121.376373
-99.017540
-78.891258
-64.345123
-58.691154
-63.657692
-77.920769
-98.184204
-119.825935
-137.644043
-147.104980
-145.564575
-132.656372
-110.092880
-80.811813
-47.726761
-13.687973
19.248459
50.295868
79.838028
109.041183
139.592850
173.487549
212.505096
257.597229
307.561523
358.827759
405.936951
442.910614
465.051208
470.359711
460.017670
437.636658
407.714020
373.940430
338.446411
302.038605
265.015686
227.874130
191.602844
157.406708
126.275230
98.618729
74.300552
52.971584
34.518654
19.199226
7.560715
0.269295
-2.170395
0.370369
7.257141
16.868454
26.354645
32.173523
30.931656
20.411148
0.199677
-28.345856
-62.813354
-100.533356
-138.893494
-175.305084
-206.984711
-231.032715
-245.043915
-247.859741
-240.088806
-223.919312
-202.402313
-178.515808
-154.704620
-132.750549
-114.011963
-99.532959
-90.003174
-85.610107
-85.871826
-89.891663
-96.637451
-105.156006
-114.510925
-123.603577
-131.195557
-135.966003
-137.017944
-134.105957
-127.705139
-118.768372
-108.243591
-96.662109
-83.966064
-69.715515
-53.528870
-35.498474
-16.409546
2.415894
19.528992
33.950012
45.471069
54.858032
63.462952
72.827515
84.213196
98.330811
115.066895
133.300964
150.793701
164.273132
169.986633
164.718750
146.844299
116.887390
77.417236
31.986267
-16.346558
-66.055847
-117.381165
-171.258850
-227.705383
-284.512878
-337.146667
-380.089783
-408.859924
-421.768677
-420.360657
-408.449341
-390.196106
-368.451355
-344.186951
-316.987000
-286.340637
-252.601440
-217.124512
-181.732788
-147.785583
-115.693665
-85.019958
-55.081726
-25.471130
3.684082
31.674072
57.477417
80.211121
