1426083918.000000
64.000000
0.000000
0.000000
0.000000
0.000000
0.000000
0.000000
0.000000
0.000000
0.000000
0.002232
-0.004517
-0.011266
-0.011384
0.001186
0.025910
0.050634
0.051363
-0.001493
-0.130243
-0.355628
-0.659125
-1.009510
-1.370983
-1.719736
-2.055110
-2.399450
-2.786664
-3.239907
-3.796012
-4.418684
-5.059294
-5.664410
-6.202154
-6.680880
-7.149598
-7.678234
-8.310739
-9.143657
-10.089731
-11.041313
-11.884212
-12.564316
-13.135630
-13.760044
-14.652320
-15.962056
-17.914442
-20.317299
-22.903854
-25.379471
-27.578028
-29.572460
-31.675173
-34.317799
-37.813618
-42.541233
-48.146301
-54.104755
-59.833092
-64.972374
-69.582932
-74.143532
-79.344986
-85.707260
-93.761932
-102.997787
-112.617569
-121.730339
-129.766022
-136.751022
-143.303436
-150.746231
-157.773560
-166.643234
-177.947983
-191.791016
-206.968079
-220.565918
-228.246445
-225.361542
-208.531982
-176.870239
-132.762222
-80.049973
-23.069275
34.943390
92.436951
149.156952
205.227722
260.369629
313.741333
363.873962
409.833527
450.907745
486.502441
515.738647
537.227417
549.219971
549.961304
538.367004
514.205505
478.674011
433.879517
382.451263
327.021057
269.841858
212.633789
156.659393
102.952332
52.373596
5.904694
-35.580414
-71.425842
-101.351837
-125.501129
-144.379700
-158.694031
-169.150711
-176.371094
-180.751389
-182.574188
-182.068634
-179.506607
-175.233246
-169.652863
-163.176910
-156.145676
-148.806808
-141.296860
-133.689835
-126.019623
-118.332680
-110.688637
-103.155724
-95.804550
-88.684166
-81.827438
-75.245941
-68.952599
-62.949085
-57.247494
-51.857185
-46.782822
-42.027760
-37.585209
-33.451748
-29.613855
-26.070963
-22.808779
-19.824995
-17.113392
-14.666497
-12.479320
-10.538469
-8.833674
-7.347853
-6.067689
-4.973423
-4.046258
-3.267375
-2.621137
-2.088365
-1.650751
-1.297691
-1.014702
-0.791059
-0.613321
-0.475162
-0.368465
-0.284617
-0.223973
-0.176477
-0.140555
-0.112515
-0.092625
-0.079772
-0.067835
-0.059293
-0.052184
-0.046861
-0.044132
-0.040358
-0.039164
-0.034331
-0.035156
-0.031817
-0.030751
-0.028105
-0.029291
-0.027454
-0.026081
-0.023852
-0.022989
-0.022173
-0.022157
-0.020828
-0.020277
-0.019405
-0.018795
-0.019170
-0.017195
-0.016264
-0.016768
-0.016039
-0.016356
-0.012255
-0.014532
-0.013970
-0.015105
-0.011058
-0.013126
-0.011830
-0.011562
-0.011306
-0.011727
-0.011189
-0.008973
-0.010070
-0.010107
-0.008293
-0.012381
-0.009308
-0.009468
-0.007652
-0.008126
-0.005824
-0.010486
-0.005213
-0.005223
-0.006029
-0.005845
-0.006718
-0.009050
-0.017620
-0.018531
-0.032691
-0.042442
-0.063768
-0.087041
-0.109158
-0.137814
-0.173905
-0.206805
-0.247228
-0.288825
-0.330892
-0.369322
-0.413035
-0.453961
-0.493369
-0.542419
-0.602579
-0.669799
-0.742978
-0.807610
-0.852542
-0.873743
-0.866680
-0.856750
-0.874709
-0.929447
-1.046932
-1.209491
-1.387249
-1.556792
-1.703356
-1.829613
-1.953575
-2.131702
-2.379989
-2.714446
-3.115919
-3.526823
-3.904050
-4.213649
-4.458828
-4.710982
-5.043621
-5.530679
-6.196998
-6.978577
-7.747848
-8.374894
-8.768053
-8.973263
-9.125349
-9.447165
-10.102457
-11.144321
-12.422479
-13.629591
-14.460860
-14.690426
-14.303486
-13.504187
-12.606642
-11.821496
-11.140469
-10.222929
-8.543219
-5.583145
-1.105755
4.695210
11.183832
17.513781
23.024565
27.378561
30.702929
33.428711
36.008926
38.794868
41.992088
45.701210
49.769817
53.616905
55.958832
55.130669
49.628510
39.044891
24.578943
8.849413
-5.016731
-14.681671
-19.481945
-20.443836
-19.445473
-18.190624
-17.430014
-16.979113
-16.359291
-15.263850
-13.961453
-12.917360
-12.408024
-12.259029
-11.970968
-11.046488
-9.278300
-6.989071
-4.794861
-3.350737
-3.021644
-3.657252
-4.667706
-5.171555
-4.441101
-2.163438
1.118107
4.184425
5.457314
3.653233
-1.612427
-9.560322
-18.442322
-26.155968
-31.022739
-32.393768
-30.698011
-27.081310
-22.871868
-18.960491
-15.698225
-12.915842
-10.350788
-7.836092
-5.468369
-3.564918
-2.386777
-1.956323
-2.041428
-2.297678
-2.450354
-2.441082
-2.412472
-2.598057
-3.174347
-4.055047
-4.961666
-5.398397
-4.883158
-3.087030
-0.019476
3.975279
8.291065
12.280714
15.559196
18.156084
20.520231
23.335155
27.217604
32.503624
39.121849
46.622837
54.101574
60.330917
63.753906
62.868118
56.627823
44.973492
29.041862
11.002310
-6.603916
-21.620914
-32.858139
-40.214149
-44.351585
-46.164543
-46.389900
-45.445782
-43.654861
-41.376934
-39.110138
-37.356052
-36.417255
-36.237057
-36.400764
-36.383915
-35.751602
-34.412445
-32.623615
-30.824684
-29.373220
-28.288452
-27.205406
-25.476620
-22.515339
-18.032421
-12.272667
-5.893738
0.289154
5.652336
9.979473
13.576385
17.065060
21.158772
26.324440
32.607960
39.449848
45.728771
49.880596
50.351418
46.020157
36.633446
22.952721
6.578316
-10.537048
-26.601463
-40.444511
-51.594200
-60.127388
-66.332405
-70.480453
-72.708504
-73.107101
-71.833565
-69.184219
-65.504295
-61.159790
-56.382866
-51.294930
-45.925362
-40.263512
-34.206284
-27.548698
-19.923119
-10.865120
0.064209
13.047668
27.912277
44.058411
60.604614
76.509888
90.738388
102.433807
111.041229
116.424576
118.916504
119.238419
118.294418
116.779892
114.855118
111.959518
106.955215
98.510483
85.679230
68.316742
47.285919
24.279465
1.469009
-19.089081
-35.859192
-48.059326
-55.640610
-59.113297
-59.287323
-57.048203
-53.210999
-48.499100
-43.493652
-38.643661
-34.254929
-30.487000
-27.352539
-24.813431
-22.762573
-21.170654
-19.978287
-19.133331
-18.498032
-17.866089
-17.006653
-15.720215
-13.896835
-11.550537
-8.771774
-5.698242
-2.388199
1.192581
5.246231
10.079254
16.017365
23.221344
31.474533
39.995010
47.458694
52.219223
52.831192
48.528778
39.582504
27.303452
13.619492
0.535583
-10.467834
-18.671616
-24.051559
-26.973358
-27.788330
-26.709702
-23.824371
-19.382568
-13.991470
-8.636719
-4.481567
-2.494049
-3.103134
-6.071823
-10.643021
-15.871109
-20.921341
-25.244843
-28.590225
-30.882568
-32.076889
-32.118896
-30.961121
-28.679520
-25.484070
-21.752213
-17.856201
-14.035614
-10.233978
-6.085785
-1.078308
5.202118
12.724121
20.795456
28.132294
33.095398
34.185608
30.468124
21.876358
9.247589
-5.967300
-22.098572
-37.684357
-51.761765
-63.922043
-74.201462
-82.837540
-90.089890
-96.168594
-101.240906
-105.522064
-109.262451
-112.620941
-115.595184
-117.928192
-119.274200
-119.456604
-118.692322
-117.583008
-116.860535
-116.877472
-117.271942
-116.514679
-112.912140
-105.250427
-93.071014
-76.693481
-57.141693
-35.839722
-14.205688
6.725311
26.725037
45.620178
62.949860
77.992554
89.865753
97.408020
99.191864
93.765808
80.229279
59.596130
33.582458
4.333191
-25.428406
-52.569458
-74.449036
-89.756165
-98.609619
-101.970825
-98.658569
-89.220337
-76.354736
-62.929993
-50.295715
-38.446472
-26.995239
-15.447510
-3.156494
15.623413
42.779053
75.377930
109.842529
145.781189
185.183533
229.771423
279.599365
332.796570
393.946289
460.686707
523.231323
571.819580
603.148010
619.693054
625.378052
623.692993
617.100098
617.068542
625.361084
632.044189
624.506958
596.130249
547.114807
480.148926
399.695984
247.743103
30.791016
-188.783997
-352.288696
-446.335663
-487.098541
-494.839996
-486.077759
-471.337830
-455.726318
-430.658752
-394.141052
-353.665710
-317.470764
-287.289795
-258.370941
-227.893433
-196.852966
-169.326874
-142.686371
-119.340820
-106.239212
-107.446152
-127.810226
-154.066956
-172.331696
-176.978195
-171.024719
-156.102402
-136.470413
-117.770859
-103.582619
-93.664642
-84.834213
-76.744530
-70.910126
-68.668907
-67.518608
-65.668663
-62.990463
-60.070435
-56.944710
-52.318687
-46.944263
-42.538944
-40.485844
-40.238895
-41.268246
-43.760670
-48.193390
-54.143463
-59.072342
-60.001392
-53.851059
-38.569565
-14.472591
15.033936
44.466377
68.371689
83.529732
90.111565
90.113678
86.001472
79.410736
70.894630
60.436577
48.166374
34.761703
21.281570
8.955460
-1.337997
-8.870087
-13.002220
-13.481827
-10.787964
-6.356659
-2.246590
-0.390099
-1.886826
-6.635422
-13.501411
-20.927765
-27.275551
-31.222435
-31.951347
-29.382034
-24.125473
-17.684998
-11.619469
-7.036850
-4.208618
-2.675240
-1.859810
-1.510956
-1.822884
-3.103851
-5.270164
-7.575272
-8.936096
-8.618416
-6.628128
-3.778419
-1.105194
0.730080
1.752739
2.440475
3.273422
4.321487
5.301926
6.015854
6.642349
7.960861
10.839630
15.717209
22.071747
28.628311
33.659622
35.812485
34.632126
30.595367
25.101700
19.694885
15.658295
13.581131
13.392075
14.524719
16.346497
18.457520
20.723328
23.278717
26.182312
29.368881
32.578491
35.794693
39.195175
43.068710
47.625122
52.553635
57.263138
61.047058
63.459358
64.322891
63.330910
59.929176
53.217972
43.299614
30.671722
17.664162
7.453400
2.650284
3.947182
9.694016
16.628609
21.479111
22.388153
19.519157
14.626995
9.855251
6.810223
6.171288
8.061131
12.706066
20.766792
32.786129
47.816837
62.724457
72.320183
70.963295
55.230320
25.999378
-11.283035
-48.568581
-78.361496
-96.678925
-103.845352
-103.358589
-99.546959
-95.301804
-91.480438
-87.656364
-83.508118
-79.506004
-76.732414
-75.861526
-76.479492
-77.231857
-76.435745
-72.934998
-66.801453
-59.270447
-52.270847
-47.849258
-47.325981
-51.019981
-57.704559
-64.617111
-67.947289
-64.057587
-50.902512
-28.941620
-1.095734
28.526962
56.264084
80.100471
99.999596
116.965637
131.953781
145.146027
156.123352
163.948242
168.755859
171.847900
175.099396
179.966354
186.584518
193.499756
198.112518
197.552658
189.859100
174.854477
154.205292
131.120819
109.328278
91.913010
80.406479
74.449371
72.190933
71.203690
69.537323
66.268982
61.467804
55.703217
49.526917
43.104858
36.409271
29.428619
22.404419
15.702545
9.318634
2.654236
-5.430664
-16.043945
-29.633789
-45.662537
-62.887787
-79.923096
-95.799988
-110.237366
-123.359863
-135.271179
-145.722229
-154.125000
-159.924683
-162.915283
-163.469421
-162.492432
-161.207214
-160.852356
-162.553528
-167.100464
-174.947693
-186.035950
-199.826721
-215.615051
-232.268494
-248.476807
-262.843201
-274.213989
-281.849243
-285.330688
-284.362244
-278.540710
-267.683228
-251.558167
-230.048035
-203.385193
-172.420227
-138.526733
-103.264587
-67.798950
-32.513977
2.372742
37.412537
73.449341
111.062439
150.061035
189.429199
227.666504
263.609558
296.987305
326.606384
352.648621
377.063110
403.346436
435.228027
474.522766
519.667725
564.945679
601.586487
616.285950
599.653503
550.160767
474.622314
384.748291
291.893677
203.573059
122.568054
48.491577
-26.592590
-108.073242
-196.242188
-286.810364
-374.343750
-455.906494
-531.162048
-600.994812
-665.585327
-732.504761
-805.706787
-883.283508
-957.852356
-1019.973389
-1062.845337
-1082.883545
-1079.297485
-1008.062195
-852.059753
-625.150513
-367.461060
-122.318481
83.484924
240.278320
349.706909
414.546387
448.601135
455.680115
440.212280
409.640076
373.504486
339.975159
310.937744
286.838470
267.378326
257.539459
256.124146
261.287750
268.886932
269.464294
258.652679
233.574310
194.598816
146.659851
97.535400
50.457520
8.115784
-27.008484
-51.810364
-56.886261
-39.261353
-2.260361
46.528870
98.791473
145.421265
180.860641
203.359360
214.527466
218.083176
216.074860
209.962906
200.888458
189.725250
175.863388
160.036896
142.213379
123.260780
104.699638
86.548996
68.339561
49.349655
27.978668
1.726746
-30.794174
-68.760925
-108.208611
-142.968826
-167.741943
-179.841827
-176.466461
-156.302368
-124.819588
-90.837723
-62.470245
-43.362198
-32.346382
-26.109734
-21.656464
-17.435425
-13.647072
-11.050613
-9.380775
-7.500580
-4.215424
0.803329
6.764252
12.379089
16.841423
19.761642
21.085869
21.535683
21.997955
23.072952
24.827072
26.873047
28.832916
30.667465
32.424294
34.017113
35.461220
36.719643
37.772072
38.580963
39.092789
39.217178
38.899162
38.218613
37.432365
37.308495
38.346405
40.211777
41.089340
38.022392
28.179077
10.550964
-13.037727
-38.278893
-59.947319
-74.128830
-79.731773
-78.445061
-73.485085
-67.772926
-62.776794
-58.436050
-54.032181
-49.143250
-44.264236
-40.495186
-38.880836
-39.773026
-42.530441
-45.594025
-46.836899
-44.358841
-36.442169
-22.826653
-4.959984
14.370956
31.709587
44.346634
51.178276
53.048042
52.073257
50.546692
49.746078
49.784409
50.114594
50.336937
50.440002
50.466843
49.757927
46.779987
39.887585
28.579926
14.442722
1.011429
-7.803192
-9.522518
-4.383732
4.904667
14.557007
21.449924
24.031612
22.305481
16.982601
8.738640
-2.035019
-14.785839
-28.432472
-41.395481
-52.037312
-59.297089
-63.002552
-63.774158
-62.739376
-60.928974
-58.964931
-56.856663
-54.003372
-49.441086
-42.222130
-31.860924
-18.914188
-4.686283
8.587643
18.682701
24.084158
24.590042
21.167282
15.468788
8.997463
2.608198
-3.336945
-8.579693
-11.990366
-11.404839
-4.662836
8.855268
26.948336
44.636143
55.951187
56.294930
44.442020
23.378197
-1.239450
-23.121145
-37.711807
-43.352436
-41.117401
-33.844593
-24.584606
-15.593790
-7.916843
-1.415672
4.558525
10.630288
16.825253
22.546631
26.820393
28.846933
28.371998
25.729015
21.762304
17.487568
13.722769
11.048994
9.894930
10.681379
13.683929
20.108679
30.087088
43.204021
58.090370
72.558197
84.216454
91.608719
94.629089
94.397446
92.572678
89.469017
83.542770
71.823242
51.424614
21.244673
-17.017263
-59.164738
-99.584785
-132.206772
-152.600693
-158.501602
-150.133179
-129.722580
-100.923645
-67.846191
-34.602165
-4.277657
22.076069
44.150520
62.129173
76.145638
86.282303
92.435127
94.488518
92.307747
81.516518
61.006752
31.477686
-4.415854
-42.430031
-77.564957
-105.223511
-122.252243
-128.127731
-124.266304
-112.562576
-95.892342
-77.331245
-59.298744
-42.709545
-26.633738
-8.613250
12.976770
39.483360
72.150230
110.398094
151.288544
190.570740
224.538071
251.366455
271.344360
283.319397
287.358307
285.492432
279.565125
269.321899
252.488953
226.290253
189.026840
140.908997
80.288391
9.719681
-62.503799
-126.093483
-174.269714
-206.177307
-225.802338
-239.368378
-252.789764
-275.277130
-310.729797
-355.615112
-402.816772
-447.245148
-486.819244
-520.122925
-543.933472
-518.373901
-426.618683
-288.010284
-141.178436
-15.162674
77.833176
136.915619
167.635742
179.154144
181.161774
175.830978
164.390930
150.450577
138.867569
132.225357
130.218384
130.812286
131.649704
130.539352
121.980461
103.969498
80.518959
59.137871
46.070587
43.987701
52.150520
67.757652
86.772224
102.524292
110.660751
111.121674
106.888779
101.086121
96.274643
91.981422
87.320854
81.184898
71.596519
58.188225
42.824982
28.361343
17.046576
9.658155
5.549580
3.763521
3.570450
4.319605
6.225069
10.148563
16.609837
25.530685
36.102379
46.931732
56.610771
63.789261
67.280563
66.397507
61.102219
51.707489
39.362389
25.610588
11.741699
-1.593719
-14.632828
-28.532021
-45.067307
-62.787506
-81.316673
-100.104454
-118.411552
-135.480621
-150.700272
-163.616547
-173.825745
-180.587799
-182.657776
-178.866180
-168.107056
-150.121399
-126.114128
-98.814087
-71.609894
-47.474915
-27.736259
-11.792702
1.966530
15.527245
30.079384
45.623886
61.138275
75.253204
86.580086
93.884773
95.887352
90.901031
77.423279
54.508484
22.299789
-17.888779
-63.825939
-112.857300
-162.326141
-209.921326
-253.823822
-292.638031
-325.610870
-352.728973
-374.905151
-393.833649
-411.779633
-430.853027
-452.044067
-474.384155
-494.590088
-507.763550
-508.943604
-495.071960
-466.217651
-425.608032
-378.193878
-328.745819
-280.320740
-233.942200
-189.391785
-146.410767
-105.476562
-67.565460
-33.407288
-2.704590
26.190186
55.307312
85.976990
118.157288
150.559082
181.192505
208.266235
230.976501
249.703552
266.043518
282.056396
299.766846
320.764526
345.869568
374.652954
405.092896
433.595581
455.811279
468.489868
470.061523
461.172485
444.425781
423.512207
401.946045
382.071899
364.817871
350.197388
339.329346
332.915649
330.704712
331.476440
333.668701
336.091553
338.188599
340.105469
342.562500
348.923584
360.412354
374.656250
386.414551
390.315796
383.312378
365.465820
339.450684
309.632935
284.608398
269.545654
264.244141
264.387939
265.267456
264.339111
261.183105
256.239136
250.171021
248.695190
254.041931
263.347229
270.183655
268.761414
256.445984
233.495789
201.412476
127.771545
3.749756
-152.907043
-307.706421
-433.104248
-519.481750
-569.819763
-591.560913
-594.090698
-584.796265
-562.760376
-528.875977
-488.107849
-448.220062
-415.302063
-391.143311
-372.375885
-355.377625
-336.958923
-311.232605
-276.422119
-235.554489
-194.947296
-160.180756
-133.511490
-114.218948
-100.415512
-89.697662
-77.189835
-60.338776
-39.741135
-19.178864
-3.310516
4.432198
2.586639
-8.334473
-25.634438
-43.539314
-58.220989
-65.930008
-66.105072
-62.276470
-59.484585
-60.918907
-66.640060
-74.204636
-79.635445
-80.764961
-77.652611
-72.296524
-66.941818
-62.580524
-58.879856
-54.790222
-49.256588
-40.937160
-29.075573
-13.251144
6.799541
31.222851
59.385006
88.715286
114.215675
124.855179
116.134239
88.933411
49.794281
8.544960
-25.531914
-47.080772
-56.095444
-56.796692
-54.612030
-52.839470
-53.116959
-55.877525
-61.247551
-69.028908
-77.614708
-83.253006
-80.789047
-66.081390
-38.028099
-0.647324
38.210548
70.209129
90.074799
97.372780
95.794556
90.594978
85.853600
83.434624
82.666008
82.039490
80.642487
78.677643
77.037949
76.489639
77.165283
78.944229
81.957451
86.489517
92.472458
98.499161
101.404938
97.082870
82.310471
56.814102
24.118965
-9.369301
-37.031296
-54.563499
-61.467484
-60.440758
-55.448700
-49.701210
-44.626541
-40.153122
-35.621918
-31.087440
-27.078751
-24.200790
-22.465675
-21.234604
-19.487976
-16.439003
-12.052963
-7.239487
-3.321541
-1.150467
-0.426254
0.519730
4.107246
12.179359
24.956276
40.457878
55.254627
65.673065
69.816391
67.339775
59.846146
49.712494
38.887264
28.260445
18.089314
8.544737
0.298349
-5.630646
-8.637535
-9.126110
-8.665610
-9.432070
-13.088472
-19.755602
-27.856995
-34.856583
-38.349655
-37.196301
-31.814106
-23.983051
-16.059845
-10.487612
-8.884954
-11.986328
-19.337282
-29.505974
-40.245651
-49.085751
-53.750885
-53.058353
-47.295479
-37.923035
-27.216633
-17.455479
-10.013680
-5.113686
-1.815296
1.105801
4.353729
7.215019
8.077335
4.831066
-4.081104
-19.155602
-39.558723
-63.389950
-88.001686
-108.573830
-121.900826
-125.986687
-120.742165
-108.098907
-91.215485
-73.175278
-55.763893
-39.016785
-21.809320
-4.358240
12.426895
25.193424
29.358061
21.106501
-0.562815
-32.760807
-69.152481
-101.374306
-122.018318
-126.641106
-115.427238
-92.682747
-64.847702
-38.016354
-15.960079
0.240246
11.741669
19.896320
25.423527
28.042358
27.454964
24.506844
21.742764
22.911331
29.837776
43.480995
62.706795
84.903130
106.927307
126.474556
143.149628
158.447708
175.012558
194.869690
219.917648
251.482529
290.135712
334.879974
382.241272
425.992432
458.100464
471.002563
458.837830
421.342957
364.023895
295.966248
226.163055
160.490356
101.004814
47.131462
-2.412895
-50.522755
-98.443687
-145.900681
-192.037445
-236.590240
-280.179047
-323.472168
-366.341888
-407.484009
-447.575989
-486.153046
-521.266663
-550.009521
-569.769653
-579.101624
-577.490845
-564.825317
-523.005554
-444.940491
-336.738586
-215.322327
-98.817818
1.051834
80.038887
138.866241
180.554138
208.971573
225.143570
230.634186
228.218781
221.564636
213.831039
206.734467
200.670776
195.257538
190.263672
183.796539
175.053436
164.550842
153.756714
143.901520
135.377899
127.973236
121.053101
113.997749
105.388443
94.614998
81.957428
68.483002
55.534302
44.481918
36.503563
31.442856
29.060066
28.388252
28.702278
29.488983
30.224129
29.951591
26.992111
19.083641
2.601044
-24.490494
-61.487709
-104.251816
-146.211060
-180.427887
-202.309662
-211.407181
-202.473175
-177.936890
-144.392212
-109.519783
-78.855560
-54.326492
-35.171417
-19.963547
-7.944214
1.181366
6.799622
9.937737
12.936607
18.170815
26.479019
36.673035
46.359558
53.180130
56.299591
55.705750
53.056763
50.824234
51.381630
56.213547
65.430054
77.391373
88.546097
94.054230
88.433975
68.667328
35.952553
-3.972099
-42.734314
-72.574707
-89.150146
-92.796692
-87.199158
-77.337585
-66.662003
-56.302338
-45.870262
-35.021988
-24.452362
-15.723923
-10.220154
-8.064011
-8.140579
-8.604729
-8.039246
-6.176109
-4.001678
-2.902649
-3.716980
-6.160400
-8.761055
-9.639244
-7.366638
-1.926643
5.144371
11.193573
13.402199
9.839951
0.269577
-13.523483
-28.691971
-41.511711
-49.438011
-51.813583
-49.904312
-46.201912
-43.266922
-42.585251
-44.000961
-46.124367
-47.062782
-45.559052
-41.494431
-35.833878
-30.153572
-25.986549
-24.461327
-26.132214
-30.994022
-37.498539
-43.225189
-45.082062
-40.310013
-27.842857
-9.159271
11.986225
31.070982
44.137825
50.114685
50.498466
48.170284
45.820274
44.992386
45.625664
47.113968
49.076691
51.561836
55.045731
59.645340
64.947754
70.114365
74.249832
76.583107
76.959930
75.539230
72.800888
69.144485
64.755623
59.596786
53.561089
46.724228
39.582726
33.107216
28.153637
24.878664
22.132965
17.745148
9.615238
-3.023798
-18.749346
-34.298035
-45.620544
-49.623741
-45.356297
-34.461758
-20.176750
-6.092701
4.923733
11.242313
12.332779
8.755651
1.822582
-6.428112
-14.099265
-19.652248
-22.064049
-21.071537
-16.676308
-9.307261
0.688247
13.079196
27.517990
42.343731
55.737679
66.592781
74.782990
80.931915
85.611763
89.254349
92.184708
94.582161
94.769684
91.631210
85.985901
78.829620
72.685425
68.940475
67.629082
67.876930
68.652893
66.335770
58.450706
45.365669
29.544243
13.262680
-3.113762
-20.475288
-39.772400
-61.337196
-88.525276
-123.508362
-165.456848
-211.349030
-258.640015
-306.552307
-354.494873
-400.179382
-415.584412
-382.303009
-304.676483
-206.785736
-113.450638
-39.160210
11.846169
42.707626
60.463287
72.550812
80.127182
81.706535
76.719193
67.164177
56.387939
47.473530
42.704201
43.246586
48.751324
54.549698
56.020668
51.308197
42.021320
31.307213
22.011442
16.281189
15.248150
18.914095
24.268459
28.001671
28.356323
25.754005
21.920895
18.569712
17.372795
19.281445
24.505646
31.617632
38.944061
45.397263
50.534561
53.863056
53.867805
48.965088
38.542603
23.951071
8.139128
-5.051283
-12.424658
-12.727335
-6.706886
2.864948
13.203949
22.446133
30.022232
36.037716
40.795086
44.575634
45.213749
44.086945
41.488693
37.032696
29.855335
19.538334
6.721508
-6.949345
-19.510895
-29.746628
-37.170906
-42.491348
-46.019978
-47.265850
-45.007011
-38.493446
-28.659191
-18.316319
-11.058777
-9.355507
-13.750088
-21.968842
-30.298454
-35.025780
-34.101318
-27.757851
-17.912487
-7.104713
3.251854
11.698765
19.036472
25.990120
32.652096
37.910381
39.872856
38.193310
31.463562
20.354172
6.916000
-6.008530
-16.314667
-22.647667
-25.038185
-24.638908
-23.136879
-22.241020
-22.872581
-25.070549
-28.030037
-31.058273
-32.919334
-32.296661
-27.915096
-18.815609
-4.242859
15.944885
41.910542
74.512901
110.199493
146.121155
180.073898
210.622009
236.604431
257.400452
271.367920
276.726715
271.845490
254.123779
221.920410
175.850311
119.328400
57.773663
-1.351271
-52.287109
-90.538422
-113.542992
-122.937744
-123.013657
-118.811378
-115.083946
-116.152184
-124.087471
-141.545837
-169.481323
-196.840591
-212.689575
-212.308426
-198.394928
-176.008514
-158.207794
-142.293060
-126.492561
-110.777847
-96.209160
-80.003777
-63.070503
-45.970894
-28.708992
-11.812614
4.526001
17.460213
24.269753
25.585854
20.643021
9.606071
-4.811668
-18.808319
-29.267708
-33.496902
-31.844841
-25.856323
-17.168346
-8.036644
-0.456821
4.987534
8.444920
10.300396
11.488201
12.243984
13.035645
14.780319
17.870693
22.299549
28.187180
35.324078
43.013119
49.810329
53.095345
50.259689
40.190098
23.914803
4.743347
-12.457369
-22.895756
-24.954443
-20.279022
-12.456907
-4.967697
0.307642
3.241398
4.595896
5.099172
4.863800
3.542148
0.984903
-2.386576
-5.876013
-8.902649
-11.157452
-12.812439
-14.238953
-15.907104
-18.351627
-22.039974
-26.887062
-31.954170
-35.456543
-35.338104
-30.616287
-22.322983
-13.535103
-7.978558
-7.837448
-12.141342
-16.979095
-17.638290
-11.128990
1.897011
17.522697
30.822487
38.583290
40.822289
40.241783
39.974472
41.363068
43.286240
43.416054
40.213562
34.418968
28.718788
25.966347
27.131241
30.728561
32.983521
30.841270
23.436913
12.676949
2.143799
-4.605339
-5.702492
-1.224792
7.279793
17.661697
27.998848
36.678261
42.491806
44.707237
43.085022
37.893066
29.885979
20.059784
9.595886
-0.098732
-7.592949
-11.752853
-12.119690
-9.222382
-4.523262
0.221130
3.490623
4.659790
4.069962
2.706894
1.715492
1.958847
3.779243
6.977425
11.032021
15.494431
19.992027
24.546150
29.262459
34.219902
39.411781
44.596817
49.506348
53.717598
56.909004
58.706978
58.908600
57.548248
55.022934
51.958771
48.932808
46.533669
44.443710
42.290077
39.442894
35.171669
28.550716
18.689243
4.924076
-12.599777
-32.657162
-52.966080
-70.753235
-83.579102
-90.083214
-90.344666
-85.623215
-77.710037
-68.452698
-59.241348
-50.997391
-44.119843
-38.602329
-34.246181
-30.789951
-28.088139
-26.161472
-25.119963
-24.983776
-25.568775
-26.382076
-26.743340
-26.014076
-23.772160
-20.015083
-15.070692
-9.603156
-4.285841
0.267771
3.703291
5.979005
7.384790
8.492943
9.956872
12.244041
15.198002
18.079639
19.692287
18.710236
14.386971
6.885946
-2.604658
-12.242727
-20.103691
-24.665123
-25.241013
-22.151606
-16.771627
-11.170066
-7.570362
-7.558613
-11.567553
-18.599173
-26.492256
-32.857155
-35.300728
-32.942986
-26.631844
-18.482088
-10.881219
-5.547154
-3.119864
-3.346263
-5.539662
-8.979254
-13.031404
-16.792322
-18.989851
-18.202488
-13.576808
-5.457535
4.515034
14.040733
21.338806
25.925766
28.783100
31.561264
35.518845
40.632179
45.621567
48.765598
48.705265
45.102585
38.595169
30.461573
22.225422
15.247150
10.492706
8.379314
8.506948
9.468025
9.201941
5.677425
-2.070803
-13.212032
-24.990166
-33.691032
-36.056347
-30.857122
-19.651920
-6.291435
4.456074
8.896305
5.732460
-3.660786
-16.083513
-28.034014
-36.876328
-41.532555
-42.140488
-39.456581
-34.172081
-26.638178
-17.098589
-6.046694
5.702806
17.256914
28.160822
38.577286
48.874382
58.896595
67.521706
72.626617
71.899994
63.967293
49.277008
30.037588
9.391642
-9.869930
-26.282406
-39.797707
-51.130157
-60.661873
-67.784058
-70.792030
-67.612312
-56.947491
-39.110893
-16.332342
7.941940
30.052195
47.285961
58.581001
64.358521
65.747452
63.830719
58.942390
50.779282
39.112373
23.982391
5.944973
-13.906912
-34.020538
-52.625160
-67.605988
-76.887329
-78.829773
-72.313705
-57.550507
-36.220177
-11.217082
14.137191
36.863499
55.645782
71.047874
83.262276
93.585526
103.577431
114.448456
126.374153
138.581741
149.826736
159.465179
167.185150
172.546753
175.157715
173.841980
167.560822
155.772049
140.232010
121.046501
98.978699
75.088966
50.346832
25.705902
1.247963
-23.104736
-47.532356
-72.262886
-97.723267
-123.833435
-150.146881
-176.172928
-196.942856
-209.388016
-212.024597
-205.463318
-192.022568
-175.117096
-157.543457
-140.857834
-125.040268
-108.803207
-91.125443
-71.266602
-49.366882
-26.589157
-5.052277
12.707275
24.563034
29.375748
27.843018
21.977737
14.958023
9.944839
9.067276
12.954315
21.300598
33.437698
48.790070
66.873505
86.656784
106.705719
125.606506
142.313202
156.255859
166.879425
172.881927
171.906158
161.330200
139.624451
108.114777
71.237244
35.416901
6.747131
-11.007874
-17.180878
-13.560760
-2.757812
13.121033
32.793304
55.519043
80.138062
104.716064
126.880707
144.559235
156.644531
163.289246
165.306610
163.480164
157.839172
147.417480
130.750000
106.735718
75.390442
38.280457
-1.639160
-40.617981
-75.033325
-102.093262
-120.257568
-129.316223
-130.221436
-124.721069
-114.996826
-103.276245
-91.611023
-81.522766
-73.904236
-69.041748
-66.818115
-66.954102
-69.276367
-73.885254
-81.181152
-91.706055
-105.969604
-124.217773
-146.450745
-172.381104
-201.520813
-233.231262
-266.532898
-299.976746
-331.565063
-358.983826
-380.154236
-393.875732
-400.235168
-400.528015
-396.732361
-390.718201
-383.586548
-375.513245
-366.057922
-354.698853
-341.183044
-325.493958
-307.715271
-287.661011
-264.912598
-239.056946
-210.097656
-178.684021
-146.068115
-113.727783
-82.878296
-54.041260
-26.984283
-0.943329
24.841095
50.614197
75.977203
100.013824
121.681488
140.397614
156.345215
170.593323
184.898468
201.150055
220.672409
243.583405
268.536682
292.729614
312.590942
324.695618
326.708984
318.087830
300.206757
276.128937
249.651337
224.258362
202.031326
183.099838
165.862213
147.718872
126.340805
100.606804
70.959282
38.963524
6.470757
-25.176971
-55.366531
-83.881256
-110.379166
-134.041687
-153.761948
-168.718887
-178.979736
-185.738556
-191.087585
-197.155975
-205.173370
-214.824524
-224.010590
-229.619110
-228.656555
-219.434052
-202.118530
-178.509399
-151.161682
-122.269653
-93.058868
-63.740112
-34.134125
-4.285095
25.211304
53.332947
79.080322
101.786072
121.306641
137.670593
150.996582
161.137451
167.734741
170.442261
169.031860
163.613586
154.725769
143.367981
130.917908
119.140198
109.818420
104.410278
103.529663
106.546631
111.698486
116.539612
118.866882
117.465210
112.453796
104.989075
96.793213
89.552551
84.775330
83.892456
88.422302
99.718384
118.303162
143.201721
171.727905
200.116150
224.743164
243.217834
255.147400
261.711121
264.875061
266.515747
267.993347
270.130310
273.298157
277.343201
281.225769
282.752808
278.740662
265.882874
241.910461
206.516174
161.811646
111.589172
60.227173
11.467468
-32.342285
-70.366943
-102.853027
-130.483337
-153.730652
-172.823975
-187.782715
-198.657288
-205.770020
-209.600586
-210.783508
-209.846375
-207.121948
-202.929077
-197.537354
-191.363892
-184.825317
-178.288818
-171.888184
-165.287537
-157.839844
-148.565857
-136.296204
-119.998108
-98.925903
-72.917236
-42.473389
-8.802246
26.324463
60.652039
91.629150
116.760559
133.957825
141.988403
140.713135
131.056152
114.787537
94.036316
70.937744
47.449280
25.136475
5.248474
-11.401123
-24.359192
-33.525269
-38.944885
-40.685486
-39.031006
-34.435425
-27.669128
-19.932007
-12.385498
-5.980835
-1.300415
1.657898
3.189880
3.957520
4.749207
6.392944
9.507507
14.377869
20.853333
28.351135
36.117371
43.530151
50.164001
55.880127
60.610352
64.239929
66.543091
67.058350
65.200867
60.314636
51.929688
39.809448
24.390381
6.749695
-11.578308
-28.867981
-43.693329
-55.337097
-63.679840
-69.109344
-72.186981
-73.400909
-73.082031
-71.439484
-68.592224
-64.598633
-59.643280
-53.990112
-48.027588
-42.276794
-37.129608
-32.797577
-29.269745
-26.232666
-23.253815
-19.930695
-16.003143
-11.394073
-6.068176
-0.163727
6.220245
12.868164
19.741638
26.926300
34.540619
42.603088
50.693207
57.855835
62.838501
64.353546
61.410522
53.599487
41.249481
25.359558
7.613708
-9.968048
-25.430481
-37.317017
-45.074890
-49.059479
-50.173492
-49.438873
-47.582123
-44.882812
-41.377625
-37.124512
-32.381378
-27.550354
-23.138428
-19.558075
-16.931213
-15.218445
-14.011383
-12.778748
-11.009827
-8.410828
-5.077393
-1.340485
2.356476
5.732666
8.708069
11.440979
14.215515
17.387054
21.524414
27.226349
34.802338
43.875214
52.992737
59.894196
62.105011
57.907562
47.061920
30.995453
12.196899
-6.548798
-23.044159
-36.033447
-45.143188
-50.530273
-52.722626
-52.381104
-50.250916
-47.094162
-43.548050
-39.958221
-36.367813
-32.607452
-28.469604
-23.955719
-19.409637
-15.379837
-12.454239
-10.868164
-10.364105
-10.196884
-9.426941
-7.331406
-3.711746
1.055359
6.161407
10.827042
14.617538
17.631653
20.384995
23.668045
28.227646
34.481995
42.281738
50.719772
58.159668
62.610107
62.262497
56.161011
44.477417
28.514862
10.283279
-8.045120
-24.571686
-37.971024
-47.553940
-53.212753
-55.420517
-55.014969
-52.942413
-49.993134
-46.584473
-42.799866
-38.495041
-33.696289
-28.681198
-23.968048
-20.158386
-17.565506
-16.203766
-15.606369
-15.092331
-13.926178
-11.608139
-7.926163
-3.049393
2.547272
8.293518
13.681686
18.399185
22.496582
26.371429
30.678497
36.058044
42.785446
50.367538
57.415665
61.876022
61.593506
55.072159
42.029373
23.589096
2.022034
-19.848602
-39.367882
-54.421860
-63.924690
-67.815033
-67.113457
-63.428848
-58.491203
-53.550957
-49.121460
-45.086914
-41.006035
-36.716309
-32.440483
-28.651894
-25.761330
-23.838951
-22.603722
-21.542320
-20.231750
-18.398842
-15.873932
-12.597458
-8.529633
-3.687561
1.781281
7.761856
14.207520
21.219376
28.986801
37.579819
46.800644
56.089333
64.426422
70.487755
72.765480
70.068916
61.813538
48.553787
31.885666
14.156471
-2.298256
-15.888008
-26.090408
-33.283516
-38.283821
-41.770439
-44.010231
-44.967628
-44.495728
-42.547348
-39.278511
-35.065926
-30.390259
-25.787285
-21.834946
-18.880936
-17.036255
-16.123909
-15.692780
-15.235085
-14.285530
-12.415695
-9.418777
-5.268463
-0.211761
5.258003
10.604980
15.493546
20.044487
24.859215
30.737808
38.214432
47.098946
56.273041
63.874466
67.849693
66.546677
59.240906
46.376930
29.471481
10.706787
-7.685837
-23.859947
-36.734604
-46.026245
-51.996918
-55.188072
-56.234940
-55.617653
-53.732025
-50.844048
-47.077339
-42.609558
-37.631851
-32.499374
-27.631386
-23.459007
-20.288208
-18.121445
-16.629234
-15.312553
-13.580956
-11.008873
-7.453423
-3.043091
1.878510
6.888542
11.680817
16.161484
20.538361
25.269852
30.867889
37.666519
45.470612
53.560089
60.691460
65.329239
66.032112
61.780640
52.318970
38.271515
21.107040
2.880600
-14.206573
-28.336792
-38.476044
-44.577438
-47.472748
-48.383316
-48.511047
-48.570801
-48.648163
-48.257431
-46.617828
-43.116394
-37.658905
-30.969193
-24.350235
-19.332047
-16.952179
-17.355057
-19.728760
-22.625671
-24.643600
-24.799820
-22.864777
-19.173630
-14.367310
-9.309052
-4.808273
-1.604477
-0.004684
0.415283
0.772522
2.652924
7.193695
14.285568
22.204208
27.954376
28.265732
20.888672
5.378143
-16.772339
-42.983856
-70.482880
-97.193100
-121.982971
-144.323425
-163.749542
-179.515381
-190.717346
-196.902924
-198.555847
-197.270966
-195.350891
-194.982361
-197.409760
-202.626984
-209.561646
-216.550568
-221.911255
-223.978577
-221.171967
-211.871124
-194.854706
-169.942566
-138.524750
-103.475159
-68.379456
-36.483276
-9.609741
11.963318
29.093567
42.896118
54.101562
62.771851
68.781494
72.353699
74.549438
77.106079
81.997925
90.741943
104.005920
121.567322
142.681030
166.586243
192.869263
221.470398
252.550110
286.040344
321.474609
357.928650
394.279907
429.419434
462.253357
491.630798
516.071350
533.876770
543.265686
542.783936
531.863647
510.827759
481.001160
444.286072
402.794373
358.550110
313.269470
268.209412
224.166809
181.497131
140.228027
100.237000
61.376282
23.822449
-11.757263
-44.208374
-72.244263
-94.883301
-111.998535
-124.629883
-134.643616
-144.249756
-155.183594
-168.260193
-183.250000
-199.212769
-214.845886
-228.986755
-240.710754
-249.563049
-255.519257
-259.034546
-260.850800
-261.714600
-262.020813
-261.564301
-259.621765
-255.396088
-248.519714
-239.357391
-229.040588
-219.137695
-211.145386
-206.111481
-204.431885
-205.974182
-210.168732
-216.062378
-222.270294
-226.689941
-226.583649
-219.022156
-201.514374
-172.790619
-133.404419
-85.593750
-32.670990
21.776031
74.518829
122.845062
164.510101
197.627869
220.615295
232.412323
232.803802
222.438416
202.811096
175.998260
144.615662
111.702881
80.360474
53.298889
32.209991
17.482544
8.232391
2.881927
-0.151001
-2.041931
-3.388184
-4.557556
-5.961609
-8.020081
-11.094574
-15.256409
-20.268555
-25.685150
-31.067596
-36.169525
-40.956940
-45.503448
-49.805145
-53.665009
-56.696320
-58.227386
-57.587433
-54.315033
-48.435852
-40.462677
-31.190002
-21.460968
-11.924988
-2.971802
5.117004
12.022125
17.519623
21.739624
25.300903
29.290649
34.849915
42.586578
52.325317
63.115356
73.535583
82.182556
88.143677
91.060516
91.113068
88.835510
84.877625
79.740326
73.743103
66.927917
59.306488
50.984589
42.306396
33.868866
26.369598
20.387421
16.158356
13.630402
12.556915
12.659180
13.740112
15.643585
18.271240
21.436859
24.971069
28.726746
32.716553
36.992798
41.486725
45.653503
48.443085
48.437347
44.308533
35.337402
21.829010
5.183777
-12.496521
-29.066864
-42.874420
-53.129822
-59.825378
-63.396027
-64.348297
-63.078796
-59.864136
-55.076385
-49.143768
-42.592133
-35.909058
-29.449707
-23.493011
-18.210632
-13.777802
-10.349487
-7.962616
-6.391510
-5.188904
-3.783020
-1.778809
1.050323
4.576080
8.532196
12.664307
16.884399
21.429962
26.790192
33.543304
41.872070
51.222473
60.199738
66.804413
69.097717
65.794647
56.788910
43.079468
26.505798
9.187225
-6.902679
-20.308228
-30.271790
-36.805420
-40.424622
-41.925171
-42.074005
-41.270844
-39.555908
-36.779480
-32.927704
-28.189728
-22.912048
-17.524750
-12.368958
-7.686340
-3.679535
-0.509125
1.773499
3.317093
4.498825
5.781067
7.460205
9.708344
12.662796
16.494324
21.451782
27.772430
35.426208
43.939301
52.539062
60.211792
65.881348
68.488586
67.065094
60.841705
49.614471
33.918777
15.148544
-4.729477
-23.636276
-39.818008
-52.219025
-60.528839
-65.042587
-66.377258
-65.273102
-62.508408
-58.587860
-53.816025
-48.357864
-42.327362
-35.983444
-29.767975
-24.262779
-19.973068
-17.128738
-15.529381
-14.613159
-13.651779
-11.990051
-9.248032
-5.418526
-0.689835
4.634895
10.312561
16.218307
22.289742
28.609650
35.267914
42.441910
50.244156
58.451397
66.276047
72.283951
74.570633
71.391838
61.845402
46.328842
26.558033
5.022427
-15.657280
-33.514481
-47.506668
-57.445915
-63.738937
-67.039253
-68.029312
-67.279053
-65.304520
-62.545910
-59.310108
-55.815605
-52.128590
-48.269566
-44.282516
-40.224285
-36.267998
-32.638466
-29.568422
-27.184441
-25.309088
-23.515770
-21.183094
-17.672916
-12.612602
-6.048962
1.520672
9.377987
16.882896
23.664165
29.786160
35.703964
42.084057
49.462940
57.938107
66.743073
74.336441
78.553551
77.266510
69.191597
54.482658
34.705872
12.459930
-9.503220
-28.972473
-44.671577
-56.203697
-63.722694
-67.685837
-68.662025
-67.175255
-63.821289
-59.221191
-53.997421
-48.797462
-44.118042
-40.309975
-37.375099
-35.101112
-33.206909
-31.483147
-29.890312
-28.554604
-27.514328
-26.559662
-25.184128
-22.807091
-19.011208
-13.716072
-7.285294
-0.324577
6.519714
12.814507
18.315216
23.116531
27.629807
32.463318
38.216194
45.309410
53.650711
62.469223
70.358345
75.563248
76.322205
71.405998
60.399940
43.941513
23.632973
1.697136
-19.537674
-38.151306
-52.999947
-63.710129
-70.555389
-74.068459
-74.945496
-73.839912
-71.315056
-67.945236
-64.115341
-60.131439
-56.034584
-51.720184
-47.073357
-42.098465
-37.034111
-32.334450
-28.531738
-25.996964
-24.811150
-24.610725
-24.629219
-23.783455
-21.150360
-16.177338
-9.079002
-0.665596
7.833855
15.302628
21.159454
25.478584
29.005173
32.776154
37.793480
44.688744
53.520317
63.758583
74.093697
82.647110
87.282120
86.076614
77.961601
63.188957
43.244934
20.584709
-2.081886
-22.408333
-38.872673
-50.752113
-58.016708
-61.082764
-60.653046
-57.592033
-52.965801
-47.752430
-42.791950
-38.513874
-34.979649
-31.867458
-28.856632
-25.724899
-22.546425
-19.625988
-17.316998
-15.828461
-15.032063
-14.480209
-13.517643
-11.497295
-8.019485
-3.057098
3.098709
9.928089
16.840115
23.416689
29.495605
35.215866
40.941811
47.190659
54.209015
61.786674
69.055435
74.564316
76.531174
73.375893
64.254280
49.483017
30.518858
9.662992
-10.550818
-27.901041
-41.001080
-49.282337
-52.964195
-52.695286
-49.423378
-44.165432
-37.833275
-31.187151
-24.708431
-18.687347
-13.360427
-8.967566
-5.840419
-4.171543
-3.855044
-4.508336
-5.486155
-6.232749
-6.307907
-5.381186
-3.252625
0.236735
5.000428
10.699511
16.688593
22.313425
27.226141
31.648661
36.281563
41.861473
48.739811
56.456417
63.678238
68.623947
69.456169
64.951698
54.777035
39.661659
21.257797
1.710350
-16.719223
-32.264778
-43.886974
-51.333191
-55.085926
-56.059311
-55.344292
-53.894241
-52.284374
-50.668392
-48.804184
-46.286076
-42.891632
-38.777905
-34.445831
-30.479187
-27.274746
-24.793716
-22.746704
-20.611179
-17.865685
-14.154392
-9.236664
-3.025127
4.259296
12.195778
20.059631
27.166500
33.059856
37.897686
42.288948
47.171822
53.359795
61.021580
69.514702
77.297638
82.317932
82.639572
76.990112
65.303574
48.730034
29.384106
9.686150
-8.249844
-22.979210
-33.864265
-40.946560
-44.668823
-45.721916
-44.854889
-42.757607
-40.034470
-37.043861
-33.949921
-30.770020
-27.498100
-24.295830
-21.320244
-18.748016
-16.690041
-15.062035
-13.694519
-12.297234
-10.514999
-8.044151
-4.612083
-0.188477
4.989746
10.466225
15.675171
20.230415
24.129082
27.815849
32.096489
37.710060
44.983772
53.492447
61.900223
68.202644
70.207848
66.238640
55.699829
39.466980
19.660103
-0.953857
-19.778946
-35.079071
-46.124779
-53.071404
-56.547554
-57.211914
-55.673424
-52.411400
-47.911278
-42.723122
-37.317589
-32.139755
-27.430290
-23.275475
-19.730865
-16.822487
-14.700394
-13.494553
-13.294945
-13.955276
-14.987404
-15.581528
-14.832016
-12.081871
-7.243706
-0.808273
6.146980
12.532814
17.650742
21.454285
24.685692
28.512047
34.119553
42.075104
51.943886
62.216667
70.631813
74.820511
73.083199
64.853081
50.954903
33.214684
14.080780
-4.101921
-19.561417
-31.269821
-38.923500
-42.913483
-43.963791
-42.900467
-40.478622
-37.215340
-33.438751
-29.310730
-25.019302
-20.799873
-17.007179
-13.905396
-11.648949
-10.188301
-9.273056
-8.567375
-7.706993
-6.431503
-4.481552
-1.674240
2.138741
6.963539
12.575668
18.451462
24.055428
29.016464
33.439537
37.912537
43.385330
50.625900
59.605896
69.130638
77.049049
80.774361
78.142815
68.303642
52.007767
31.373344
9.225365
-11.673782
-29.220924
-42.247124
-50.460503
-54.216728
-54.286201
-51.693512
-47.464470
-42.534561
-37.507088
-32.764565
-28.476562
-24.700623
-21.450722
-18.712250
-16.488792
-14.759666
-13.515629
-12.673668
-11.995987
-11.022945
-9.108006
-5.611210
-0.205368
6.835022
14.769989
22.606316
29.615150
35.603542
41.047134
46.802132
53.612923
61.616783
70.136810
77.613846
82.008118
81.402397
74.551010
61.302715
42.748142
20.891167
-1.735437
-22.715656
-40.145504
-52.945152
-60.864235
-64.386673
-64.487221
-62.342323
-59.055115
-55.317978
-51.362373
-47.032562
-42.038620
-36.328262
-30.187847
-24.278097
-19.353306
-16.010208
-14.437399
-14.359165
-15.108704
-15.907227
-16.021843
-14.969120
-12.475854
-8.428404
-2.999623
3.500244
10.601240
17.785950
24.788183
31.714378
39.063885
47.393829
56.754570
66.236961
73.856964
77.010941
73.489037
62.392151
44.615757
22.612526
-0.443426
-21.674152
-39.183247
-52.174328
-60.697235
-65.274200
-66.516739
-65.125740
-61.856537
-57.651810
-53.413948
-49.821648
-47.102852
-45.009834
-43.032532
-40.605186
-37.437950
-33.629360
-29.730499
-26.389242
-24.047819
-22.741674
-21.933355
-20.768881
-18.370758
-14.203304
-8.180717
-0.800732
7.249065
15.299330
22.907860
30.023890
36.869198
43.901131
51.627411
60.498302
70.513573
81.113045
90.908775
97.751465
99.322777
93.823990
80.740265
61.161896
37.525429
12.915543
-9.853979
-28.955154
-43.670723
-54.102272
-60.811131
-64.433960
-65.467270
-64.451813
-61.970016
-58.714703
-55.341743
-52.375290
-50.031868
-48.249886
-46.748520
-45.219238
-43.442825
-41.336040
-38.908680
-36.225624
-33.365631
-30.296799
-26.977877
-23.315069
-19.126169
-14.218374
-8.447086
-1.811791
5.447043
12.796715
19.533787
25.039749
29.131664
32.168541
35.090244
39.138783
45.307476
53.975101
64.623581
75.867577
85.709076
91.906311
92.484856
86.186119
72.825897
53.517311
30.536934
6.857427
-14.558769
-31.628828
-43.481750
-50.573425
-54.096615
-55.409882
-55.442322
-54.611176
-52.950729
-50.527519
-47.608879
-44.641396
-42.100590
-40.320709
-39.333359
-38.979866
-38.925850
-38.804726
-38.302143
-37.210915
-35.413410
-32.869469
-29.538210
-25.366770
-20.210552
-13.990437
-6.779751
1.174061
9.425323
17.461075
24.839775
31.287006
36.857258
41.869286
46.857582
52.440430
59.241909
67.491653
76.895065
86.371384
94.217667
98.353905
96.809128
88.425919
73.251007
52.566536
28.729877
4.446964
-17.847000
-36.436871
-50.520706
-60.054493
-65.407455
-67.122368
-65.824005
-62.249123
-57.182285
-51.540558
-46.076550
-41.323959
-37.421490
-34.224182
-31.376976
-28.572845
-25.596794
-22.421944
-19.115364
-15.910355
-12.875847
-10.058044
-7.264297
-4.154381
-0.431725
4.049759
9.160797
14.511787
19.679909
24.396286
28.791809
33.423393
39.071716
46.489113
56.025261
67.252357
78.847313
88.733162
94.474983
93.889786
85.822731
70.475159
49.528687
25.678734
1.897423
-19.256699
-36.144302
-48.185173
-55.560356
-58.930367
-58.993332
-56.453209
-51.906326
-46.103432
-39.829964
-33.892029
-28.839279
-24.868187
-21.730728
-19.050613
-16.578621
-14.407524
-12.830276
-12.082550
-11.978439
-11.824127
-10.724335
-7.977425
-3.419380
2.470528
8.875053
14.932823
20.163574
24.452873
28.106308
31.687668
35.941269
41.597458
49.027687
57.935608
67.090706
74.439056
77.632401
74.864433
65.563759
50.570061
31.926620
12.129311
-6.486740
-22.275963
-34.406151
-42.784966
-47.806671
-50.208549
-50.760269
-50.039085
-48.369827
-45.802563
-42.326363
-38.081646
-33.436737
-28.917225
-25.015495
-22.089893
-20.187481
-19.183765
-18.842659
-18.806858
-18.646011
-17.847557
-15.826824
-12.184967
-6.795055
0.036968
7.644207
15.183361
22.024994
27.941044
33.240650
38.653919
45.120140
53.214695
62.738716
72.424194
80.195251
83.697357
81.115967
71.850159
56.754257
37.780212
17.465435
-1.906162
-18.704952
-32.193439
-42.213741
-48.988697
-52.877007
-54.285553
-53.702602
-51.728451
-49.012409
-46.122746
-43.323170
-40.649948
-37.945084
-35.083691
-32.138294
-29.345966
-26.988186
-25.202843
-23.799650
-22.428396
-20.717920
-18.412251
-15.341398
-11.510038
-6.883774
-1.364632
4.999250
11.994787
19.225136
26.223946
32.767330
39.022129
45.653511
53.413002
62.752518
73.370811
83.966400
92.319405
95.929459
92.751678
81.940674
64.205475
41.668579
17.237179
-6.259609
-26.669710
-42.922367
-54.831474
-62.727482
-67.171570
-68.702621
-67.790466
-64.942764
-60.840668
-56.126865
-51.414467
-47.019249
-43.050343
-39.380852
-35.814785
-32.284069
-28.849512
-25.795010
-23.463583
-22.030134
-21.348835
-20.904665
-19.959822
-17.794861
-13.957788
-8.441157
-1.613150
5.846035
13.158181
19.654823
24.918541
29.008177
32.505341
36.471733
42.046906
49.996750
60.287762
71.808121
82.437355
89.602417
90.863960
84.611610
70.644569
50.263161
25.936699
0.712952
-22.468914
-41.489922
-55.276779
-63.835098
-67.840561
-68.284958
-66.170181
-62.388683
-57.578987
-52.303421
-46.928177
-41.741283
-36.916256
-32.610737
-28.950222
-26.009123
-23.789160
-22.249750
-21.291718
-20.696108
-20.091793
-18.881676
-16.391500
-11.988110
-5.372459
3.112799
12.634068
21.876081
29.699915
35.550140
39.709816
43.211021
47.475540
53.677872
62.295162
72.662529
83.003220
90.819664
93.505730
89.068726
76.772141
57.475739
33.356308
7.410879
-17.277399
-38.235626
-53.977036
-64.117226
-69.062431
-69.757095
-67.296028
-62.660168
-56.689819
-50.063644
-43.313881
-36.897587
-31.121731
-26.181351
-22.084455
-18.839329
-16.503540
-15.242712
-15.175171
-16.190380
-17.799252
-19.139164
-19.107868
-16.871656
-12.092686
-5.154316
3.026150
11.232227
18.513638
24.467163
29.466824
34.441246
40.644077
49.003487
59.793079
72.152107
84.260437
93.543289
97.349319
93.689667
81.897781
62.933666
39.097305
13.521515
-10.724670
-31.333572
-47.105091
-57.971786
-64.654976
-68.110107
-69.253632
-68.669853
-66.632980
-63.317005
-58.911652
-53.710926
-48.129852
-42.529404
-37.121452
-32.020294
-27.276855
-23.022438
-19.435593
-16.698433
-14.693565
-13.040478
-11.010429
-7.855083
-3.054245
3.438049
11.223385
19.558041
27.632668
34.930088
41.350742
47.288788
53.582100
61.034027
70.114388
80.517975
90.810822
98.613091
101.172043
96.285141
83.171326
63.007122
38.554821
13.351494
-9.487503
-28.086418
-42.047325
-51.976395
-58.799042
-63.181976
-65.393112
-65.617546
-64.107201
-61.379440
-58.098648
-54.647728
-51.164284
-47.445023
-43.200272
-38.322128
-33.103783
-28.155106
-24.165077
-21.591003
-20.309700
-19.677612
-18.709991
-16.445465
-12.345924
-6.386871
0.969833
9.062241
17.258774
25.104813
32.430931
39.288383
46.065033
53.410187
62.081772
72.458359
84.093887
95.426804
103.967499
106.876450
101.932892
88.319443
66.948364
40.336868
11.902359
-14.981499
-37.762474
-55.137138
-67.130508
-74.576782
-78.666695
-80.494835
-80.742256
-79.754051
-77.684692
-74.636131
-70.790398
-66.398399
-61.716675
-56.959137
-52.302757
-47.877396
-43.909515
-40.554932
-37.977135
-36.141113
-34.691399
-33.038658
-30.527016
-26.655663
-21.245071
-14.464844
-6.761162
1.383850
9.604164
17.653122
25.346619
32.496544
38.944275
44.699028
50.027466
55.601875
62.317200
70.838730
81.207993
92.510757
102.807625
109.513451
110.045952
102.625595
86.881477
64.099510
36.912750
8.745712
-17.219963
-38.593781
-54.282059
-64.368774
-69.775002
-71.752457
-71.445763
-69.730209
-67.214561
-64.226517
-60.974876
-57.506355
-53.836769
-49.895012
-45.664536
-41.270622
-37.018280
-33.254105
-30.320030
-28.352829
-27.195305
-26.373520
-25.426750
-23.923958
-21.657829
-18.582191
-14.817520
-10.416519
-5.429367
0.133919
6.177971
12.528824
18.954872
25.224419
31.269394
37.280991
43.705376
51.077038
59.933750
70.518936
82.449097
94.583618
104.905548
110.940536
110.277771
101.383392
84.239738
60.408825
32.720722
4.516483
-21.155514
-42.214115
-57.766197
-67.806740
-72.986465
-74.171310
-72.264648
-68.147568
-62.776997
-56.967625
-51.479187
-46.648548
-42.454048
-38.583675
-34.642612
-30.446568
-26.177269
-22.337074
-19.532814
-18.109077
-17.921642
-18.248329
-18.081841
-16.497910
-13.025974
-7.729473
-1.183899
5.810612
12.574318
18.652554
24.011780
28.903641
33.893497
39.784454
47.352440
57.105682
68.815231
81.168808
91.859276
98.025589
97.131149
87.801804
70.334839
46.782295
20.235607
-5.945486
-28.961716
-47.080715
-59.659588
-66.906387
-69.551987
-68.506363
-64.721336
-59.142509
-52.645889
-46.063282
-40.092545
-35.053894
-31.003862
-27.629902
-24.497835
-21.337347
-18.179302
-15.396053
-13.490530
-12.667660
-12.621845
-12.494291
-11.202401
-7.872346
-2.198075
5.317713
13.756548
22.061909
29.329092
35.230461
39.944946
44.186428
49.014378
55.493111
64.250435
74.962990
86.142281
95.212677
99.197487
95.621857
83.381897
63.281570
37.737549
10.166308
-15.998389
-38.095833
-54.601013
-65.123596
-70.132408
-70.627380
-67.814270
-62.866543
-56.763870
-50.198860
-43.596748
-37.225536
-31.211514
-25.713425
-20.945110
-17.083321
-14.363553
-12.897095
-12.605562
-13.112228
-13.723822
-13.495834
-11.584381
-7.530899
-1.435389
5.946682
13.605478
20.553347
26.164988
30.379118
33.805824
37.551666
42.975906
51.203979
62.562370
76.119011
89.555634
99.673904
103.224716
97.973656
83.500862
61.369389
34.675949
7.109573
-18.005638
-38.403023
-53.119850
-62.420631
-67.230896
-68.764053
-68.084412
-65.857635
-62.501034
-58.213394
-53.180428
-47.706085
-42.102238
-36.694481
-31.774448
-27.516956
-24.112648
-21.761787
-20.503784
-20.110115
-19.978439
-19.211922
-16.855892
-12.232376
-5.316746
3.281429
12.531204
21.410042
29.238884
36.028954
42.484001
49.823887
59.147022
70.935570
84.471786
97.684601
107.552734
110.941666
105.587715
90.956177
68.406448
40.826736
11.842072
-15.108139
-37.558304
-54.263237
-65.191071
-71.197174
-73.510590
-73.410690
-71.869812
-69.506622
-66.597771
-63.261635
-59.489479
-55.260300
-50.538200
-45.456352
-40.276161
-35.401604
-31.290649
-28.288139
-26.422615
-25.332191
-24.274300
-22.377991
-18.815063
-13.096214
-5.212036
4.307610
14.563354
24.530167
33.443611
41.117569
48.047508
55.281082
63.914108
74.513931
86.651176
98.742325
108.230095
112.294853
108.597145
96.083153
75.426567
48.884628
19.730850
-8.661430
-33.492783
-53.154579
-67.062637
-75.407440
-78.846870
-78.280121
-74.799301
-69.672043
-64.176437
-59.343880
-55.636604
-52.907845
-50.553596
-47.913666
-44.630676
-40.854454
-37.105766
-33.998810
-31.884827
-30.677315
-29.856422
-28.591461
-26.088280
-21.791710
-15.594276
-7.803848
0.930511
9.860924
18.316887
25.943565
32.744606
39.083015
45.691391
53.387360
62.882477
74.377838
87.217354
99.650726
109.065575
112.550827
107.825745
94.018478
72.100044
44.719238
15.376511
-12.444809
-36.172211
-54.490257
-67.245743
-75.006432
-78.617699
-78.919975
-76.669342
-72.580894
-67.443016
-62.056732
-57.105576
-52.982628
-49.721573
-47.010101
-44.428246
-41.668068
-38.667007
-35.671120
-33.096558
-31.205635
-29.957802
-28.885719
-27.173409
-24.001541
-18.803139
-11.579750
-2.936867
6.143066
14.639099
21.923218
27.976845
33.470612
39.407188
46.808968
56.251236
67.620392
79.984596
91.536369
99.923622
102.676666
97.865852
84.757751
64.165321
38.358429
10.477615
-16.236137
-39.137840
-56.609642
-68.051033
-73.647133
-74.211487
-70.931122
-65.141373
-58.132927
-50.972816
-44.332993
-38.529831
-33.546753
-29.278381
-25.612976
-22.466080
-19.923813
-18.179535
-17.420242
-17.788086
-18.981316
-20.274193
-20.615234
-18.883163
-14.416351
-7.249306
1.839531
11.612991
20.818268
28.666107
35.086769
40.749397
46.856773
54.656250
64.889992
77.141388
89.797562
100.074585
104.840942
101.600403
89.309990
68.797295
42.627625
14.337532
-12.556442
-35.234245
-52.229286
-63.260750
-68.955322
-70.501053
-69.032883
-65.507172
-60.563797
-54.550522
-47.788986
-40.658463
-33.594421
-27.147148
-21.738663
-17.697628
-15.131058
-14.002312
-14.139587
-15.115807
-16.413574
-17.277298
-16.794415
-14.227543
-9.033272
-1.240448
8.435448
18.825485
28.654205
37.074875
44.116489
50.739437
58.426739
68.438873
80.938820
94.470581
106.139908
112.407898
110.231133
98.238441
77.109024
49.479267
19.010075
-10.587486
-36.393791
-56.776665
-71.232719
-80.107300
-84.141602
-84.229370
-81.341103
-76.527145
-70.866631
-65.320923
-60.433540
-56.227985
-52.277771
-47.991604
-43.043770
-37.591366
-32.220695
-27.661221
-24.461422
-22.659538
-21.882133
-21.300762
-20.018814
-17.125336
-12.086288
-4.766277
4.384605
14.468063
24.424198
33.476067
41.422878
48.798035
56.636993
66.010147
77.504715
90.669434
103.970459
114.855850
120.478561
118.361038
107.219604
87.453201
61.117374
31.428017
1.977890
-24.101204
-44.772102
-59.345577
-68.249557
-72.534012
-73.480492
-72.168900
-69.369095
-65.645020
-61.506702
-57.450737
-53.907181
-51.104397
-48.939491
-46.981434
-44.712704
-41.894497
-38.672070
-35.508942
-32.933796
-31.157246
-29.822582
-28.137714
-25.150803
-20.147865
-12.931400
-3.911594
5.935097
15.515686
23.913849
30.743694
36.326260
41.579208
47.731083
55.900585
66.625984
79.438087
92.868202
104.417282
111.170334
110.479538
100.724609
82.005539
56.267410
26.799383
-2.612680
-28.726578
-49.563866
-64.518913
-74.064964
-79.065147
-80.383110
-78.691864
-74.563240
-68.711388
-61.984730
-55.267036
-49.181038
-43.965416
-39.451530
-35.353928
-31.483255
-27.882072
-24.858528
-22.701963
-21.497427
-21.020803
-20.601595
-19.368067
-16.555481
-11.778546
-5.203574
2.542136
10.589290
18.181145
24.876431
30.671942
35.912197
41.271431
47.567341
55.605392
65.859451
78.111008
91.074051
102.370445
108.938698
107.934708
97.680984
78.372231
52.108223
22.347139
-7.034935
-32.734356
-52.647354
-66.003250
-73.189018
-75.325638
-73.736099
-69.657005
-64.064362
-57.689743
-51.041538
-44.496681
-38.297836
-32.586800
-27.435865
-22.866110
-19.031128
-16.152397
-14.484526
-14.074247
-14.514990
-14.886261
-14.041771
-10.910744
-4.981514
3.474880
13.463703
23.570297
32.560223
39.804138
45.523449
50.672310
56.577484
64.319969
74.160843
85.213928
95.555115
102.493576
103.230576
95.692032
79.209808
54.903748
25.544689
-5.083130
-33.078541
-55.485153
-70.872513
-79.312294
-82.004395
-80.565666
-76.440407
-70.637787
-63.806644
-56.307800
-48.509960
-40.741924
-33.316441
-26.556652
-20.728832
-16.116123
-12.865158
-10.968960
-10.090450
-9.626831
-8.751144
-6.673862
-2.943573
2.528667
9.398933
17.064159
24.920853
32.546452
39.909111
47.350391
55.510960
65.037216
76.266914
88.872475
101.505020
111.907326
117.219589
114.760582
102.926285
81.943878
54.018166
22.919254
-7.171377
-32.803383
-52.099014
-64.886963
-72.302895
-75.856369
-76.857201
-76.065529
-73.710892
-69.949821
-64.994659
-59.214005
-53.053925
-46.944664
-41.198540
-36.032372
-31.630915
-28.147017
-25.677938
-24.079220
-22.942478
-21.571474
-19.060040
-14.672407
-8.153182
0.079599
9.105034
17.849394
25.687113
32.711033
39.769108
48.062008
58.622478
71.609642
86.059998
99.853180
110.001312
113.467682
107.926086
92.559502
68.551064
38.892445
7.631518
-21.279453
-44.936489
-62.061737
-72.779076
-78.129898
-79.362038
-77.542221
-73.552292
-68.154922
-62.068310
-55.968452
-50.248978
-44.969158
-39.948891
-35.004742
-30.188808
-25.766659
-22.170610
-19.653177
-18.048462
-16.779890
-14.899262
-11.512781
-6.170217
1.069526
9.531164
18.319244
26.620859
34.063271
40.809830
47.480103
54.947090
64.019302
74.986786
87.199371
98.916206
107.488388
109.874931
103.708603
88.202629
64.639511
36.043221
6.215616
-21.388760
-44.475906
-62.172661
-74.655060
-82.646683
-86.866135
-87.945496
-86.434387
-82.926071
-78.161789
-72.862404
-67.553482
-62.496635
-57.659069
-52.827267
-47.841034
-42.797195
-38.063072
-34.198196
-31.654224
-30.444820
-29.978142
-29.129494
-26.671970
-21.741169
-14.131176
-4.356918
6.629658
17.718185
28.015678
37.059750
44.831646
51.742306
58.611324
66.462379
76.159164
87.913071
100.853760
112.918839
121.165665
122.541374
114.938339
97.944122
73.094116
43.542534
13.087883
-14.731331
-37.544571
-54.348587
-65.326096
-71.387253
-73.597603
-72.900284
-70.017578
-65.520538
-60.003517
-54.007053
-48.061546
-42.613998
-37.941490
-34.198601
-31.468018
-29.693550
-28.758038
-28.516327
-28.840107
-29.581383
-30.556496
-31.434433
-31.740314
-30.842667
-28.102253
-23.221672
-16.372345
-8.158073
0.465050
8.600918
15.761196
21.930599
27.511353
33.226444
39.817436
47.912834
57.745193
68.973442
80.387024
89.981209
95.261520
93.816086
84.271935
66.791924
43.218491
16.699459
-9.391487
-32.300999
-50.508080
-63.680717
-72.248825
-76.845940
-77.969772
-75.982689
-71.312347
-64.785217
-57.501854
-50.463219
-44.336060
-39.114162
-34.384872
-29.794804
-25.382633
-21.650776
-19.286911
-18.668621
-19.580769
-21.134169
-22.154152
-21.449913
-18.297361
-12.498044
-4.416574
5.113514
15.077092
24.545128
32.838810
39.820534
45.954819
52.183613
59.645950
69.176208
80.743340
93.208351
104.267960
110.933640
110.434128
101.026367
82.617012
56.964314
27.211136
-2.826282
-29.738352
-51.065746
-65.781631
-74.063950
-76.953049
-75.889008
-72.231873
-67.080872
-61.229458
-55.190399
-49.320671
-43.783539
-38.592766
-33.529778
-28.423773
-23.229578
-18.186903
-13.805611
-10.592306
-8.653778
-7.580406
-6.480076
-4.303211
-0.267944
5.769524
13.294827
21.336567
28.885830
35.367886
40.940022
46.505272
53.428116
62.808350
74.823746
88.243896
100.386047
107.844635
107.528732
97.689331
78.565140
52.340244
22.430927
-7.442627
-34.142513
-55.480331
-70.421059
-78.815811
-81.337791
-79.134750
-73.558128
-66.066017
-57.763096
-49.353878
-41.155380
-33.164753
-25.455254
-18.351353
-12.392982
-8.146400
-5.892262
-5.436348
-6.072380
-6.718697
-6.424625
-4.442036
-0.502085
5.312046
12.600634
20.823364
29.329649
37.589516
45.317165
52.749146
60.643021
69.915657
81.047562
93.333321
104.627502
111.706161
111.229439
101.080002
81.241730
53.940395
22.951733
-7.567097
-34.332977
-55.355640
-70.125206
-79.168205
-83.506783
-84.230743
-82.357483
-78.726746
-74.061852
-68.862793
-63.418507
-57.768368
-51.753407
-45.282249
-38.433353
-31.617649
-25.471319
-20.679007
-17.569981
-15.945716
-15.013843
-13.731166
-11.091784
-6.481878
0.066592
8.072384
16.686832
25.086071
32.707878
39.518143
46.080288
53.405426
62.518646
73.803146
86.639305
99.075691
108.235474
111.072372
105.317047
90.171829
66.639427
37.274677
5.558647
-24.875473
-51.007431
-70.832863
-83.541901
-89.488945
-89.825920
-86.190941
-80.259560
-73.447357
-66.628922
-60.198303
-54.104446
-48.148476
-42.204430
-36.363678
-31.043726
-26.710657
-23.689751
-22.013369
-21.297865
-20.906712
-20.027229
-17.951141
-14.120348
-8.369270
-0.977163
7.355545
15.752569
23.470903
30.274370
36.544094
43.259281
51.541527
62.036602
74.469788
87.337265
98.129173
103.854675
101.919754
90.885147
71.098999
44.733604
15.194290
-13.675232
-38.597794
-57.504810
-69.696091
-75.685692
-76.687912
-74.057953
-69.094246
-62.773434
-55.845531
-48.900780
-42.358727
-36.469059
-31.304482
-26.839708
-23.046988
-20.009205
-17.925961
-16.997093
-17.192547
-18.080524
-18.767151
-18.076843
-14.983421
-9.069492
-0.694473
9.063652
18.849537
27.622002
34.896618
41.018761
46.947464
53.920849
63.021698
74.637283
88.044189
101.130371
110.626961
113.028732
105.658752
87.777695
61.112259
29.288479
-3.155853
-32.207088
-55.248383
-71.290070
-80.634163
-84.256584
-83.339188
-79.080345
-72.617775
-65.038177
-57.306305
-50.027935
-43.458096
-37.530468
-32.016956
-26.747513
-21.736359
-17.202858
-13.477242
-10.826992
-9.235054
-8.183575
-6.824734
-4.228649
0.258465
6.700481
14.476604
22.642937
30.287048
36.997643
43.072163
49.399101
57.155357
67.207809
79.517029
92.800026
104.451736
111.099861
109.586563
98.028976
76.644821
47.828079
15.567345
-15.802795
-42.739067
-63.171730
-76.596970
-83.672974
-85.621330
-83.717087
-79.131073
-72.780685
-65.560616
-58.145035
-51.044785
-44.505432
-38.571892
-33.157013
-28.306664
-24.242012
-21.238434
-19.596390
-19.244759
-19.602745
-19.607208
-18.082466
-14.217438
-7.786041
0.591179
9.749794
18.599892
26.577515
33.853683
41.222244
49.780037
60.428581
73.356415
87.763390
101.638550
112.080307
115.823143
110.228523
94.284065
69.140015
37.963768
5.066002
-25.355774
-50.256668
-68.322220
-79.714767
-85.518471
-87.149666
-85.812561
-82.506439
-77.948799
-72.756500
-67.429695
-62.345779
-57.754295
-53.669884
-49.887039
-46.131813
-42.173302
-38.057945
-34.076408
-30.635590
-27.982452
-25.957909
-23.939529
-20.947876
-16.121269
-8.930351
0.546059
11.645363
23.262703
34.226334
43.621460
51.157860
57.300545
63.152084
70.194901
79.628006
91.829628
105.827766
119.264870
128.713333
130.657532
122.594292
103.969109
76.515320
43.818886
10.200218
-20.469917
-45.700417
-64.596931
-77.462723
-85.200516
-88.753830
-88.925125
-86.452148
-82.155006
-76.865349
-71.402870
-66.280952
-61.696419
-57.532341
-53.560631
-49.525650
-45.405540
-41.413361
-37.957939
-35.530518
-34.391090
-34.273399
-34.295021
-33.185608
-29.692360
-23.159065
-13.849876
-2.792488
8.565269
18.947601
27.647171
34.709351
40.776810
46.850456
54.038422
63.333267
75.199936
89.168159
103.549385
115.562378
121.820602
119.415810
106.788277
84.474243
55.022041
22.296959
-9.552643
-37.173119
-58.636368
-73.466347
-82.249245
-85.981285
-85.705940
-82.308723
-76.571899
-69.346184
-61.647858
-54.374107
-48.123650
-43.038177
-38.876083
-35.207359
-31.833656
-28.789696
-26.361984
-24.779358
-24.061485
-23.797897
-23.250282
-21.518684
-17.885292
-12.083328
-4.447037
4.180016
12.777473
20.554138
27.223373
33.016724
38.637947
45.039223
53.146149
63.580849
76.356903
90.395813
103.417168
112.187553
113.419464
104.981560
86.783577
60.895363
30.948135
0.859688
-26.263893
-48.607697
-65.461967
-76.837898
-82.885048
-83.918488
-80.569344
-73.900406
-65.348793
-56.404621
-48.158878
-41.117764
-35.215702
-30.096256
-25.523712
-21.551334
-18.486389
-16.689636
-16.246281
-16.741299
-17.264824
-16.772209
-14.296566
-9.412872
-2.235306
6.573341
16.109371
25.399837
33.740250
40.889278
47.159191
53.570595
61.412094
71.748596
84.822525
99.393700
112.788437
121.477295
122.043808
112.278137
92.051666
63.389996
30.003223
-3.665096
-33.651947
-57.226009
-73.312332
-82.265350
-85.399368
-84.309258
-80.384476
-74.718605
-68.101471
-61.249718
-54.738190
-48.901562
-43.788025
-39.233444
-34.980267
-30.918594
-27.323112
-24.599815
-23.070930
-22.588840
-22.474239
-21.679676
-19.024643
-13.682644
-5.466518
5.137592
17.005417
28.793053
39.277431
47.826626
54.648472
60.791206
67.791153
76.959915
88.573593
101.472000
112.865036
119.061951
116.553185
103.367905
79.893921
48.894970
14.670292
-18.235863
-46.234303
-67.468842
-81.645256
-89.386978
-91.703156
-89.604172
-84.107132
-76.367844
-67.691521
-59.418713
-52.510422
-47.359390
-43.826035
-41.355671
-39.295242
-37.066921
-34.348236
-31.121021
-27.633350
-24.298317
-21.410542
-18.884903
-16.196342
-12.446537
-6.819622
1.066387
10.751759
21.235065
31.247913
39.849499
46.852737
52.898407
59.301559
67.452530
78.286484
91.642334
106.043671
118.701759
126.263283
125.700653
115.246002
94.975342
66.832230
34.142246
0.699120
-29.989132
-55.381069
-74.169266
-86.194733
-92.190659
-93.347252
-90.857407
-85.785095
-78.958687
-71.095894
-63.002068
-55.553398
-49.476055
-45.155891
-42.458302
-40.857533
-39.718014
-38.613964
-37.428410
-36.311897
-35.413010
-34.544785
-33.129356
-30.313503
-25.280609
-17.663330
-7.788177
3.330460
14.332195
24.023609
31.801910
37.925453
43.336388
49.293346
57.025131
67.258949
80.065094
94.515892
108.666824
119.660286
124.239006
119.618828
104.516518
79.735756
48.139450
13.881327
-18.787384
-46.609642
-67.848679
-82.210693
-90.348938
-93.287720
-92.065903
-87.670532
-81.010567
-73.067764
-64.777863
-56.953407
-50.179333
-44.671448
-40.318291
-36.761909
-33.646427
-30.789261
-28.230335
-26.289570
-25.157183
-24.835102
-24.768829
-23.933044
-21.147291
-15.563781
-6.954246
3.901478
15.533113
26.307152
34.997520
41.393608
46.357407
51.452076
58.330509
68.139809
80.981453
95.678680
109.901131
120.502121
124.189026
118.371422
102.040909
76.276421
44.107922
9.760776
-22.521820
-49.511490
-69.530067
-82.425392
-88.979691
-90.393661
-87.846680
-82.442657
-75.246590
-67.243942
-59.213051
-51.680462
-44.772255
-38.447266
-32.580502
-27.242306
-22.722433
-19.379395
-17.538315
-17.095064
-17.555172
-17.865473
-16.629845
-12.563953
-5.017998
5.624847
17.919266
29.787611
39.398399
45.915245
49.905201
53.000542
57.229427
64.267334
74.735214
87.955627
101.930359
113.695175
119.838081
117.449875
104.957108
82.827614
53.575333
21.156357
-10.221561
-37.226330
-57.881851
-71.704620
-79.178329
-81.285553
-79.259537
-74.419785
-68.084549
-61.385708
-55.097374
-49.385052
-44.025295
-38.572231
-32.752937
-26.682587
-20.968616
-16.425415
-13.688263
-12.824108
-13.205166
-13.576408
-12.576580
-9.229092
-3.264709
4.800613
13.911064
22.894329
30.920135
37.675793
43.398628
48.878262
55.191143
63.454872
74.358810
87.625801
101.572601
113.217224
118.956711
115.643867
101.686844
77.751389
46.659569
12.575293
-20.153494
-48.033024
-69.088516
-82.893295
-90.164917
-92.178284
-90.242615
-85.522949
-78.994408
-71.553253
-63.984112
-56.916306
-50.567596
-44.720604
-38.961216
-33.001389
-26.980200
-21.521502
-17.377363
-15.068979
-14.401520
-14.586150
-14.450693
-12.894762
-9.227621
-3.312794
4.397410
13.095849
21.794163
29.624006
36.248028
42.028679
47.953724
55.352524
65.265747
77.829857
91.886009
104.931076
113.632141
114.693161
105.893417
86.817879
59.274590
26.773470
-6.362102
-36.093742
-59.559238
-75.519913
-84.242203
-87.012375
-85.561378
-81.584343
-76.399193
-70.876640
-65.410431
-60.047581
-54.729736
-49.408405
-44.225033
-39.499035
-35.509209
-32.416546
-30.287441
-29.049236
-28.576906
-28.593660
-28.482969
-27.280243
-23.978794
-17.927074
-9.182264
1.330722
12.165035
21.859680
29.566355
35.271175
39.726360
44.092297
49.652786
57.468693
68.201981
81.762611
96.920326
111.167084
121.036423
122.980652
114.554115
95.545860
68.104904
36.249626
4.587115
-23.072315
-44.525078
-59.392414
-68.620064
-73.626106
-75.652618
-75.486015
-73.638657
-70.475609
-66.454750
-62.108723
-57.842155
-53.897900
-50.258186
-46.852943
-43.680042
-40.826797
-38.507820
-36.881390
-35.963379
-35.543476
-35.185364
-34.242432
-31.919933
-27.518387
-20.601921
-11.284843
-0.246458
11.388867
22.437832
31.973381
39.662270
45.769306
51.151894
57.029091
64.717926
75.264923
88.892570
104.608284
119.931046
131.358902
135.176788
128.671005
111.085693
83.948479
50.732834
15.783732
-16.745375
-43.866798
-64.122124
-77.506195
-85.011978
-87.993042
-87.670502
-85.013718
-80.750778
-75.426537
-69.586800
-63.788059
-58.401474
-53.637783
-49.464512
-45.840431
-42.654621
-39.972248
-37.808647
-36.133995
-34.886074
-33.928234
-33.027752
-31.769421
-29.438091
-25.208115
-18.467651
-9.232953
1.691031
12.859747
22.788774
30.489676
35.972538
40.077713
44.156857
49.487091
57.024109
67.206596
79.977852
94.627647
109.551292
122.175034
129.336426
128.002945
116.315506
94.465881
64.843391
31.483120
-0.965333
-28.689823
-49.515739
-63.184940
-70.845856
-74.308121
-75.260208
-74.773796
-73.420761
-71.388496
-68.797798
-65.764648
-62.428875
-58.893242
-55.252903
-51.744347
-48.770485
-46.842747
-46.275879
-46.968887
-48.313068
-49.271320
-48.820461
-46.307663
-41.530571
-34.865425
-26.954849
-18.425230
-9.801563
-1.293951
7.087746
15.484943
23.940468
32.277550
40.188850
47.225670
53.273689
58.511116
63.615898
69.575752
77.334511
87.387802
99.342010
111.727478
122.005707
127.133522
124.356728
112.141205
90.810181
62.609863
31.098385
0.055466
-27.397507
-49.477024
-65.575890
-76.070236
-81.751053
-83.471542
-82.036530
-78.249748
-72.768188
-66.264313
-59.391579
-52.782959
-47.034012
-42.665527
-40.007603
-39.064766
-39.526611
-41.020428
-43.091412
-45.493210
-47.944290
-50.088329
-51.322231
-50.953316
-48.400932
-43.561394
-36.860062
-29.237656
-21.779152
-15.329872
-10.212135
-6.151718
-2.329842
2.286537
8.502533
16.664925
26.387810
36.796494
46.847740
55.633575
62.786682
68.568878
73.761765
79.363335
86.461433
95.750229
107.217178
119.698662
130.938019
137.764038
137.072433
126.705414
106.312988
77.658020
44.141937
9.908478
-21.221893
-46.528740
-64.782097
-76.073853
-81.469810
-82.514290
-80.719330
-77.343437
-73.300682
-69.045570
-64.817337
-60.581276
-56.133995
-51.290428
-46.033867
-40.710632
-36.122490
-33.289467
-32.848152
-34.731331
-37.957924
-40.862335
-41.810104
-39.818977
-34.759933
-27.407913
-18.855843
-10.128204
-1.875397
5.636421
12.502037
18.983818
25.335983
31.718422
38.090149
44.207268
49.914223
55.229683
60.585243
66.757042
74.659874
84.839272
96.958305
109.508278
119.866409
124.828850
121.528763
108.403656
85.923340
56.514420
23.973541
-7.602501
-35.024742
-56.489029
-71.600136
-80.973862
-85.547142
-86.293678
-83.962402
-79.293312
-72.978882
-65.837608
-58.653198
-52.039185
-46.385406
-41.815948
-38.222771
-35.453934
-33.314903
-31.732468
-30.593071
-29.799408
-29.200218
-28.484161
-27.287537
-25.165550
-21.678406
-16.502571
-9.438393
-0.667412
9.321510
19.702507
29.560326
38.133041
45.104248
50.721863
55.758263
61.317268
68.479050
77.958389
89.719681
102.592331
114.358765
122.026543
122.590958
113.995155
95.851074
69.702888
38.654259
6.481125
-23.233391
-47.924065
-66.214310
-77.850502
-83.407227
-83.856339
-80.437325
-74.469078
-67.211815
-59.785683
-53.006653
-47.360146
-42.952980
-39.569077
-36.781563
-34.226982
-31.777901
-29.614799
-28.095421
-27.441765
-27.506729
-27.669678
-26.894295
-24.190529
-18.927734
-11.104050
-1.394867
9.111992
19.272079
28.225082
35.608894
41.708923
47.437683
54.003143
62.562851
73.735497
87.041115
100.780746
112.248558
118.287598
116.155548
104.377914
83.251518
54.861069
22.624706
-9.644306
-38.524021
-61.666256
-77.991913
-87.550217
-91.159027
-90.025299
-85.475983
-78.776688
-71.024612
-63.027412
-55.213982
-47.653114
-40.254742
-32.996918
-26.184036
-20.386189
-16.246609
-14.179337
-13.989620
-14.850300
-15.481434
-14.620796
-11.310837
-5.266552
3.087936
12.829414
22.828491
32.118370
40.182571
47.121536
53.680874
60.950169
70.030090
81.457504
94.770462
108.158920
118.707916
123.000229
118.122826
102.778603
77.883904
46.416313
12.620417
-19.118069
-45.457302
-64.646561
-76.483368
-81.935165
-82.459702
-79.589958
-74.695442
-68.792892
-62.523403
-56.173084
-49.830750
-43.412434
-37.053234
-31.103254
-26.028248
-22.329599
-20.207016
-19.416361
-19.280895
-18.843266
-17.213493
-13.787632
-8.429840
-1.517757
6.260445
14.189201
21.813446
29.098766
36.555672
45.044292
55.449974
68.190994
82.763130
97.449043
109.459854
115.484016
112.673241
99.629807
77.012825
47.435043
14.870255
-16.429878
-43.025116
-62.916412
-75.649368
-82.108650
-83.824173
-82.437370
-79.282074
-75.278198
-70.778847
-65.775642
-60.050789
-53.496544
-46.326645
-39.084747
-32.585182
-27.649834
-24.683693
-23.489510
-23.317108
-23.028595
-21.407700
-17.541977
-11.084229
-2.364517
7.779755
18.265549
28.131821
36.948380
45.038132
53.316238
62.922775
74.698288
88.563721
103.083267
115.581375
122.577423
120.800354
108.235626
85.062851
53.657257
18.091110
-17.008667
-47.651642
-71.291458
-87.150131
-95.823746
-98.674683
-97.365723
-93.418350
-88.004807
-82.024200
-76.060562
-70.394836
-65.028931
-59.726547
-54.212067
-48.336700
-42.266998
-36.570343
-32.027557
-29.326279
-28.633728
-29.313004
-29.976639
-28.962067
-24.851227
-17.101013
-6.251328
6.294144
18.775909
29.787399
38.831284
46.451782
54.004913
63.127792
74.988770
89.653152
105.678131
120.202866
129.525299
130.116638
119.828949
98.643311
68.947342
34.852966
1.019562
-28.579575
-51.643646
-67.645920
-77.482086
-82.721100
-84.846817
-84.909058
-83.560516
-81.204376
-78.174210
-74.791336
-71.264069
-67.609665
-63.667618
-59.249969
-54.331238
-49.234146
-44.517242
-40.816818
-38.476456
-37.240311
-36.326187
-34.569275
-30.808685
-24.259201
-14.759979
-2.991104
9.738846
21.835449
31.976120
39.722321
45.656082
51.281738
58.465424
68.704605
82.429184
98.677109
115.071884
128.290543
134.781738
131.703430
117.736847
93.737061
62.518372
28.248260
-4.696762
-32.918365
-54.641998
-69.813919
-79.495026
-85.111191
-87.851654
-88.394165
-87.096848
-84.118240
-79.758896
-74.509415
-68.965576
-63.669952
-59.046509
-55.213898
-52.109253
-49.549927
-47.342987
-45.417984
-43.778641
-42.331116
-40.908630
-39.086914
-36.270584
-31.818527
-25.303604
-16.650024
-6.297928
5.009918
16.366791
27.003876
36.453247
44.749741
52.347351
60.144928
69.072495
79.934830
92.964935
107.683273
122.596725
135.248978
142.507019
141.287872
129.496552
106.942001
75.659546
39.593063
3.447449
-28.642365
-54.075531
-72.181641
-83.809647
-90.489380
-93.699158
-94.464630
-93.445175
-91.073792
-87.723145
-83.758316
-79.440201
-74.929428
-70.312042
-65.629257
-61.046875
-56.814880
-53.269150
-50.680618
-49.159088
-48.402435
-47.803131
-46.508209
-43.730148
-39.033157
-32.569351
-25.021637
-17.358246
-10.475220
-4.835236
-0.237709
4.115639
9.301399
16.202293
25.063835
35.400299
46.089767
55.912796
64.100639
70.691528
76.450897
82.591454
90.311150
100.440651
113.160934
127.701859
142.148682
153.475525
157.975769
152.309814
134.721222
105.964012
69.322762
29.764465
-7.632744
-38.976990
-62.424400
-78.107399
-87.308060
-91.812881
-93.120422
-92.288132
-89.935379
-86.473694
-82.374908
-78.086044
-74.101585
-70.719910
-68.068970
-66.043297
-64.469063
-63.296963
-62.671135
-62.838425
-63.929306
-65.761414
-67.797318
-69.177773
-69.090294
-67.019714
-62.860355
-56.979504
-50.040295
-42.797924
-35.966034
-30.029736
-25.191437
-21.270277
-17.821815
-14.280609
-10.170820
-5.302361
0.253836
6.152964
12.079617
17.845219
23.547520
29.559464
36.321651
44.210258
53.228374
62.922150
72.500381
81.072258
88.003128
93.138702
96.970322
100.572914
105.372742
112.687378
123.188629
136.352386
150.175995
161.301620
165.845703
160.413910
143.411896
115.523186
79.742966
40.394745
1.979668
-31.857239
-58.863297
-78.185783
-90.092636
-95.628258
-96.181335
-93.298737
-88.317467
-82.227631
-75.646690
-68.960556
-62.405151
-56.298187
-51.082855
-47.171448
-44.957962
-44.595642
-45.966721
-48.733353
-52.251556
-55.685135
-58.257095
-59.306671
-58.524521
-56.074661
-52.414200
-48.112137
-43.559433
-38.949814
-34.200912
-29.088501
-23.359344
-16.918198
-9.851440
-2.424927
4.952881
11.926910
18.376556
24.544952
30.892990
37.923584
45.893463
54.648346
63.682434
72.362808
80.178192
87.041656
93.359787
99.942780
107.760513
117.341293
128.381439
139.391632
147.748367
150.256699
144.076065
127.646820
101.397034
67.722351
30.433151
-6.139679
-38.258514
-63.419327
-80.617966
-90.242798
-93.576675
-92.342941
-88.131317
-82.207870
-75.432419
-68.419769
-61.588623
-55.288147
-49.682724
-44.793442
-40.498276
-36.605682
-33.018265
-29.792862
-27.067688
-24.949234
-23.375488
-22.137436
-20.841309
-19.025284
-16.298477
-12.260696
-6.719513
0.299332
8.492737
17.243210
25.835159
33.633209
40.351868
46.125809
51.460434
57.191574
64.222153
73.219223
84.249832
96.341949
107.500763
114.917236
115.658325
107.633606
90.236694
64.763321
33.981918
1.594742
-28.623703
-53.657120
-71.637604
-82.061035
-85.671814
-83.977066
-78.842667
-71.983490
-64.666763
-57.610779
-51.103745
-45.139786
-39.541977
-34.105896
-28.712967
-23.390060
-18.438980
-14.308289
-11.484116
-10.201950
-10.181580
-10.616028
-10.255783
-7.910217
-2.796463
5.121338
15.033630
25.613098
35.486145
43.700500
50.093018
55.298676
60.621918
67.439758
76.669067
88.238861
100.733490
111.576294
117.519485
115.591980
103.996506
82.791214
54.038361
21.324738
-11.191238
-39.834869
-62.158295
-77.215469
-85.438995
-88.034836
-86.527817
-82.322403
-76.506668
-69.812531
-62.659241
-55.274857
-47.784927
-40.267181
-32.917725
-26.094788
-20.209335
-15.700912
-12.818253
-11.539734
-11.426239
-11.692734
-11.252625
-9.098495
-4.551392
2.450233
11.284904
20.926773
30.293236
38.723877
46.308029
53.823875
62.530815
73.496918
87.018463
102.063744
116.204674
126.041199
128.142807
120.182785
101.831123
74.996407
43.323334
11.123253
-17.876289
-41.235092
-58.003571
-68.521889
-73.841278
-75.301468
-74.209625
-71.667343
-68.496460
-65.184631
-61.775738
-58.088032
-53.791512
-48.686100
-42.836403
-36.677769
-30.856909
-26.061628
-22.700823
-20.702171
-19.408121
-17.813725
-14.844360
-9.823237
-2.693877
5.989061
15.342726
24.503073
33.015583
40.870720
48.621513
57.093163
67.187119
79.327927
93.061111
106.715073
117.368240
121.572327
116.401505
100.560646
75.062088
43.034847
8.825668
-23.265709
-50.103279
-70.210770
-83.519760
-90.855553
-93.343704
-92.129128
-88.213882
-82.646355
-76.458733
-70.598503
-65.601799
-61.502731
-57.878639
-54.014160
-49.483109
-44.398361
-39.506317
-35.880493
-34.192505
-34.389687
-35.475662
-35.912804
-34.289566
-29.804527
-22.514259
-13.209579
-2.960754
7.244583
16.630814
24.867355
32.120712
39.108551
47.115433
57.538239
71.110123
87.149399
103.222458
115.448578
119.720688
113.133652
95.096451
67.605194
34.688766
1.132080
-28.952774
-52.947266
-70.013031
-80.682877
-86.277115
-88.241745
-87.824997
-85.833221
-82.830048
-79.111572
-74.775253
-69.800308
-64.122299
-57.816483
-51.218414
-44.870697
-39.461517
-35.604385
-33.601120
-33.372742
-34.347244
-35.619659
-35.954407
-34.124573
-29.123505
-20.615646
-9.129669
3.979309
16.966232
28.272217
37.051392
43.578949
49.061890
55.205063
63.649902
75.280289
89.829926
105.664581
119.828873
128.632538
128.648926
117.715378
95.796783
65.236313
30.176071
-4.609924
-34.965805
-58.382858
-74.220779
-83.423569
-87.656418
-88.624649
-87.457520
-84.779327
-80.874832
-76.036774
-70.706711
-65.442932
-60.634125
-56.349487
-52.338623
-48.240326
-43.901154
-39.524734
-35.580353
-32.557434
-30.613449
-29.389832
-28.114960
-25.809021
-21.510635
-14.650650
-5.251389
5.980118
17.781784
28.672119
37.529709
44.010773
48.807541
53.440414
59.809982
69.419846
82.854279
99.220367
116.103607
129.986740
137.042526
134.188202
120.171463
96.094604
65.039169
31.352295
-0.852325
-28.457016
-49.921021
-65.120834
-74.749985
-79.909012
-81.663910
-81.024612
-78.735809
-75.322937
-71.223785
-66.705017
-61.979111
-57.213272
-52.347717
-47.176620
-41.560349
-35.610382
-29.938614
-25.401154
-22.757950
-22.159760
-22.871185
-23.380371
-21.981140
-17.560394
-9.850677
0.399338
11.820663
22.983124
32.838287
41.004807
47.678207
53.663635
60.005508
67.784271
77.732803
89.798569
102.924881
114.891174
122.671021
123.114594
113.974335
94.758545
67.230942
34.925751
2.163193
-27.181625
-50.697372
-67.678406
-78.731201
-85.079788
-87.921326
-88.117310
-86.278244
-82.989151
-78.776779
-74.185684
-69.527451
-64.874420
-60.046265
-54.851257
-49.185287
-43.228760
-37.485123
-32.579269
-29.120911
-27.403839
-27.218140
-27.667755
-27.388870
-24.998596
-19.509735
-10.795532
0.354507
12.490952
24.110336
34.097809
42.101273
48.586441
54.666794
61.668808
70.849747
82.871460
97.432114
112.925522
126.552811
134.760132
134.195496
122.817123
100.727890
70.329575
35.733917
1.528885
-28.477448
-52.099823
-68.909302
-79.717712
-85.831253
-88.345520
-88.070374
-85.618469
-81.615402
-76.882751
-72.170700
-67.873550
-63.900223
-59.732391
-54.828094
-49.024811
-42.701187
-36.693970
-31.932663
-28.980240
-27.690445
-27.268066
-26.432983
-23.900452
-18.838379
-11.130020
-1.460724
9.042969
19.290253
28.615936
37.077560
45.289688
54.204132
64.742966
77.397980
92.041306
107.557465
121.920456
132.273956
135.542282
129.376236
112.887192
87.234756
55.396790
21.362091
-10.892242
-38.345261
-59.388702
-73.890320
-82.670181
-87.051056
-88.373489
-87.600479
-85.348312
-81.917206
-77.492523
-72.313568
-66.578644
-60.482559
-54.157547
-47.706635
-41.299561
-35.221542
-29.858643
-25.447800
-21.858215
-18.511185
-14.501114
-9.042816
-1.818588
6.871948
16.227142
25.252197
33.204697
39.978760
46.161240
52.907471
61.374298
72.089523
84.436935
96.372009
104.779968
106.456940
99.055756
82.008400
56.748215
26.396881
-5.079224
-33.995773
-57.718803
-74.976433
-85.822647
-91.154114
-92.205444
-90.136971
-85.921104
-80.334312
-73.959030
-67.284248
-60.639732
-54.074707
-47.512352
-40.841766
-34.078583
-27.582504
-21.921608
-17.621284
-14.781853
-12.813538
-10.645996
-6.977402
-0.819878
8.216713
19.731201
32.697090
45.883171
58.133156
68.669464
77.357430
84.739075
91.846703
99.799461
109.310379
120.038666
130.342102
137.393738
137.943970
129.367889
110.619301
82.819290
49.057480
13.468063
-19.837975
-47.784546
-68.863953
-82.887077
-90.603287
-93.159508
-91.759331
-87.581047
-81.619026
-74.825287
-67.832245
-60.972427
-54.358101
-47.914368
-41.773811
-36.207458
-31.626434
-28.430473
-26.669983
-25.961037
-25.452972
-24.072571
-20.765411
-14.962822
-6.690102
3.367271
14.100525
24.463593
33.888832
42.586159
51.500191
61.847061
74.567368
89.672920
105.771271
120.065254
128.894287
128.682205
117.097359
94.014626
61.892136
25.126480
-11.139923
-42.526497
-66.533791
-82.709038
-92.144684
-96.487404
-97.110222
-94.865555
-90.234528
-83.833656
-76.510612
-69.397797
-63.339287
-58.665039
-55.011757
-51.583206
-47.697418
-43.244026
-38.751694
-35.117683
-33.031349
-32.496552
-32.627121
-31.950523
-28.947807
-22.651405
-12.936180
-0.522018
13.290916
27.035843
39.429680
49.784775
58.115120
65.244698
72.585640
81.744232
93.853760
108.926865
125.370895
140.074127
149.083954
148.619873
136.364868
112.323845
79.001328
40.740677
2.595871
-31.070274
-57.514481
-76.056831
-87.576355
-93.734253
-96.131119
-95.783218
-93.081444
-88.142609
-81.205421
-72.988556
-64.481659
-56.714676
-50.423248
-45.795872
-42.632488
-40.448578
-38.850166
-37.663750
-36.870094
-36.425049
-36.012962
-34.940445
-32.258209
-27.118214
-19.113876
-8.559479
3.495235
15.611382
26.503273
35.415318
42.310001
47.853092
53.236839
59.785995
68.778564
80.994110
96.240906
112.917252
127.991852
137.497055
137.702682
126.299072
103.296936
71.199768
34.240459
-2.815475
-35.825241
-62.074337
-80.466507
-91.205116
-95.338211
-94.289429
-89.505455
-82.271240
-73.748535
-64.928787
-56.712845
-49.813042
-44.622108
-41.141914
-38.906036
-37.181644
-35.267609
-32.755508
-29.688013
-26.595930
-24.129692
-22.704134
-22.118536
-21.493483
-19.463087
-14.781799
-6.851407
3.776487
15.651232
26.909500
36.082531
42.711967
47.488747
51.899525
57.587097
65.751450
76.901688
90.430939
104.704529
116.992004
123.936806
122.216232
109.610298
85.878029
53.264835
15.914497
-21.103109
-53.283936
-77.717094
-93.481529
-101.176392
-102.287369
-98.398888
-90.876862
-80.891907
-69.629936
-58.363953
-48.381023
-40.558784
-35.260025
-32.111420
-30.299492
-28.962746
-27.548115
-25.955975
-24.412491
-23.183176
-22.300316
-21.395634
-19.698677
-16.254782
-10.245176
-1.383272
9.941080
22.580505
34.838036
45.174759
52.672905
57.503754
60.971611
64.976959
71.447021
81.426300
94.663467
109.360863
122.473282
130.288666
129.345215
117.345001
94.067192
61.510117
23.626484
-14.789648
-49.232292
-76.514130
-95.170227
-105.276192
-107.892021
-104.517776
-96.787262
-86.437485
-75.163376
-64.496887
-55.494598
-48.532753
-43.308090
-39.066181
-35.114830
-31.171669
-27.460567
-24.501915
-22.706585
-22.052593
-21.890240
-21.175381
-18.720573
-13.743076
-6.088676
3.667873
14.395462
24.836914
33.970737
41.307461
47.017593
51.899338
57.125069
64.053223
73.716370
86.293503
100.551437
113.885010
122.645996
123.278915
113.430733
92.863297
63.564045
29.261971
-5.740623
-37.580070
-63.549137
-82.278961
-93.584381
-98.043518
-96.744217
-90.929489
-81.943497
-71.264946
-60.344543
-50.482735
-42.593555
-36.963455
-33.283890
-30.868015
-29.040131
-27.510017
-26.438847
-26.066357
-26.419975
-26.960159
-26.646423
-24.258816
-18.933319
-10.441391
0.582996
12.916744
24.992893
35.498817
43.660725
49.739033
54.912254
60.954556
69.438156
81.147316
95.408310
110.131348
122.090164
127.816360
124.498703
110.795044
87.322418
56.710968
22.965931
-9.514729
-37.060062
-57.542366
-70.523483
-76.947594
-78.414040
-76.408981
-72.024765
-65.921875
-58.668182
-50.784443
-42.843712
-35.283428
-28.400295
-22.181503
-16.631535
-11.759056
-7.784718
-4.921482
-3.223835
-2.300835
-1.313171
0.932602
5.463608
12.760256
22.341009
33.028183
43.258118
51.889297
58.605049
64.079437
69.715500
77.032852
86.897926
98.906281
111.039871
120.035049
122.016968
113.809761
94.134064
64.276848
27.974648
-9.630207
-43.503429
-70.077232
-87.946945
-97.538055
-100.470840
-98.610977
-93.671097
-87.020523
-79.713005
-72.541763
-65.887238
-59.720741
-53.754894
-47.649788
-41.409325
-35.335186
-30.035522
-26.014870
-23.332581
-21.511692
-19.622059
-16.558636
-11.457512
-3.940563
5.671268
16.568649
27.681847
38.083885
47.354050
55.749748
64.042633
73.258766
84.028687
96.080162
107.865273
116.730362
119.487404
113.424271
97.270744
71.868896
40.019142
5.733650
-26.856651
-54.521675
-75.442558
-89.235657
-96.466972
-98.189774
-95.614380
-90.040329
-82.821548
-75.264175
-68.449211
-62.984955
-58.913765
-55.729492
-52.769424
-49.535248
-45.948547
-42.426147
-39.655502
-38.184067
-38.081940
-38.655670
-38.606323
-36.444305
-31.092133
-22.362793
-11.022446
1.535660
13.788422
24.742004
34.180634
42.643280
51.147964
60.817139
72.472763
86.217346
101.113358
115.003647
124.744690
126.975449
119.170197
100.583801
72.738510
39.113983
4.172165
-27.847076
-53.980484
-72.925354
-84.910782
-91.108826
-93.028152
-91.999542
-89.070419
-85.042389
-80.477448
-75.820847
-71.370438
-67.155869
-63.121017
-59.142715
-55.298462
-51.728928
-48.676849
-46.297714
-44.574127
-43.313705
-42.239212
-40.989197
-39.100769
-35.871811
-30.493622
-22.412445
-11.675537
0.938736
13.967590
25.796234
35.355896
42.513046
48.042221
53.325752
59.837196
68.864754
81.024757
96.072517
112.669937
128.207840
139.117889
141.754761
133.474091
113.676094
84.227951
48.979744
12.626091
-20.526329
-47.614319
-67.488297
-80.411186
-87.404816
-89.683578
-88.294365
-84.146729
-78.170319
-71.325874
-64.625366
-58.998726
-54.837013
-52.029930
-49.972443
-47.883553
-45.211418
-41.868881
-38.239227
-34.947029
-32.516716
-31.065651
-30.176247
-29.014381
-26.469482
-21.635277
-14.179390
-4.514252
6.233345
16.687752
25.733093
32.958572
38.735802
44.069710
50.174042
58.182495
68.838631
82.171303
97.234238
111.867050
122.876625
126.668709
120.365807
102.887306
75.494263
41.597038
5.745834
-27.687355
-55.461662
-75.941231
-89.018379
-95.546341
-96.797607
-94.076302
-88.528755
-81.175812
-72.974365
-64.868996
-57.725426
-52.092133
-47.988735
-44.957008
-42.199902
-39.003464
-35.208637
-31.223492
-27.804188
-25.526585
-24.363039
-23.520262
-21.649246
-17.472641
-10.281857
-0.239431
11.581176
23.707195
34.672165
43.513916
50.077507
54.916401
59.197052
64.341103
71.642090
81.778854
94.441353
107.964638
119.480370
125.475815
122.758011
109.538567
86.189430
55.244019
20.792768
-12.721664
-41.588341
-63.505997
-77.839706
-85.143539
-86.687698
-83.921021
-78.197937
-70.679176
-62.435886
-54.371708
-47.288387
-41.552380
-37.144855
-33.625008
-30.370239
-26.965900
-23.458138
-20.404076
-18.573433
-18.485588
-19.919392
-21.825340
-22.597549
-20.688377
-15.282478
-6.542202
4.482235
16.315891
27.646252
37.651810
46.218468
53.861137
61.548027
70.476936
81.459106
94.414963
107.981918
119.390457
125.153481
122.082588
108.495079
84.878822
53.886925
19.612747
-13.481262
-41.740479
-62.923912
-76.279282
-82.345993
-82.408569
-78.004372
-70.682526
-61.822258
-52.598045
-43.921036
-36.355415
-30.102577
-25.002251
-20.717339
-16.991768
-13.837029
-11.414040
-9.908928
-9.308861
-9.233681
-9.031380
-7.900803
-5.169899
-0.441971
6.227005
14.301697
22.843170
30.795959
37.435280
42.721748
47.424164
52.980209
60.820351
71.719315
85.235069
99.542458
111.759468
118.524765
116.944878
105.252731
83.549606
53.934029
20.148369
-13.405602
-42.722183
-65.206833
-79.972374
-87.667427
-89.746803
-87.905426
-83.666748
-78.200012
-72.390480
-66.725761
-61.349487
-56.071701
-50.627548
-44.917122
-39.188171
-33.940155
-29.710304
-26.797279
-25.096992
-24.148384
-23.228455
-21.351036
-17.501839
-10.953651
-1.623718
9.711174
21.587418
32.406425
41.115028
47.743568
53.322449
59.445580
67.598618
78.543755
91.761467
105.299812
116.003418
120.163719
114.556526
97.716499
70.629288
36.709061
0.826744
-32.228104
-59.089851
-78.374802
-90.460518
-96.642014
-98.318176
-96.624664
-92.473610
-86.678825
-80.127213
-73.599976
-67.546768
-61.922485
-56.360611
-50.358505
-43.685555
-36.596863
-29.866776
-24.421303
-20.994225
-19.517441
-19.066757
-18.110565
-15.051636
-8.935654
0.207962
11.531410
23.670013
35.266014
45.389359
53.799690
60.947029
67.951073
76.216675
86.844788
99.891281
113.840988
125.670929
131.594849
128.310013
114.209793
90.090096
58.854187
24.696777
-8.092155
-36.163574
-57.609024
-71.979179
-79.916634
-82.721893
-81.767090
-78.340286
-73.438499
-67.722389
-61.577621
-55.128151
-48.308121
-41.125999
-33.737038
-26.546669
-20.191818
-15.307884
-12.075928
-10.131096
-8.598366
-6.507507
-3.051281
2.054939
8.575729
16.012741
23.791538
31.566113
39.291176
47.310955
56.279305
66.933456
79.726830
94.182259
108.632095
120.159821
125.320328
121.138153
106.126938
80.982857
48.483669
12.759720
-21.721073
-51.306362
-73.823395
-88.845543
-97.316177
-100.837936
-100.987892
-98.887009
-95.150925
-90.113098
-84.039078
-77.379089
-70.502930
-63.548466
-56.317825
-48.618839
-40.528046
-32.626621
-25.838001
-20.986519
-18.342857
-17.285700
-16.462263
-14.332865
-9.595539
-1.728815
8.842682
20.858122
32.682274
42.841576
50.661057
56.521759
61.752899
68.120338
76.975960
88.667572
102.216064
115.301605
124.708603
127.058960
119.606102
101.163239
72.704300
37.356186
-0.230246
-35.171303
-63.623264
-83.795349
-95.907524
-101.624985
-102.926048
-101.286026
-97.448250
-91.686134
-84.232071
-75.654694
-66.907616
-58.895729
-52.234184
-47.014397
-42.878525
-39.297134
-35.918140
-32.690025
-29.763054
-27.259338
-25.089659
-22.901793
-20.346188
-17.130949
-13.224344
-8.643011
-3.231810
3.327572
11.348810
20.776752
31.037659
41.086617
49.881554
56.846851
62.199757
66.844734
72.086868
79.198265
89.164864
102.208557
117.534378
133.085373
145.539993
150.981461
145.909531
128.527832
99.477631
61.911430
20.673685
-19.163233
-53.403976
-79.609764
-97.199554
-106.944519
-110.419662
-109.259621
-104.884254
-98.410057
-90.765564
-82.781105
-75.177551
-68.584343
-63.283257
-59.301170
-56.453232
-54.568207
-53.407242
-52.772602
-52.325287
-51.600685
-50.117348
-47.519730
-43.717327
-38.890793
-33.264206
-27.079140
-20.539028
-13.832884
-7.044703
-0.239927
6.801765
14.430283
22.853645
31.948109
41.146778
49.729553
57.315056
64.313141
71.830505
81.245911
93.385178
107.838165
122.670471
134.653687
140.063507
135.739288
120.004723
93.209656
57.913929
18.353912
-20.647427
-54.726990
-80.984528
-98.305168
-107.160988
-109.012260
-105.702667
-98.907288
-90.047516
-80.246002
-70.232208
-60.528530
-51.458073
-43.336769
-36.529331
-31.481766
-28.500626
-27.549213
-28.179386
-29.593990
-30.944054
-31.581516
-31.036728
-29.108677
-25.758694
-21.029030
-15.146065
-8.408463
-1.189034
6.207809
13.568695
20.806946
27.855873
34.591461
40.945183
46.934570
52.888657
59.442482
67.405289
77.535759
90.055267
104.221054
118.006104
128.247284
131.287018
124.107170
105.594475
77.041969
41.993294
5.180710
-28.846611
-56.845909
-77.236824
-89.965240
-95.919853
-96.275375
-92.331787
-85.234978
-76.082809
-65.883553
-55.610046
-46.163704
-38.355225
-32.821114
-29.781242
-28.925034
-29.474632
-30.471786
-31.174446
-31.311256
-31.044418
-30.653168
-30.183250
-29.187790
-26.931877
-22.698952
-16.125343
-7.475410
2.464432
12.663086
22.175949
30.455559
37.572914
44.104942
51.010635
59.277664
69.496902
81.627678
94.708664
106.877983
115.503639
117.862076
111.742462
96.153564
71.933441
41.608826
8.860428
-22.468292
-49.262054
-69.676041
-83.129364
-90.015594
-91.250900
-87.930603
-81.276962
-72.572021
-62.999054
-53.635315
-45.322540
-38.508072
-33.226974
-29.160858
-25.793793
-22.656204
-19.575500
-16.687561
-14.328781
-12.689713
-11.593246
-10.360199
-8.091644
-4.052078
1.896652
9.243286
17.052917
24.300934
30.315247
34.966705
38.721893
42.497086
47.504272
54.774109
64.722366
76.557663
88.096085
96.177368
97.489151
89.714249
72.401657
47.243988
17.576462
-12.520355
-39.291748
-60.135895
-73.919388
-80.937164
-82.359604
-79.773148
-74.634735
-68.112595
-61.035568
-53.999512
-47.480515
-41.728241
-36.731659
-32.210403
-27.784683
-23.370148
-19.230759
-15.960770
-14.073517
-13.660614
-14.099457
-14.287750
-12.995605
-9.398087
-3.342926
4.738327
13.931915
23.288956
32.106506
40.061783
47.346054
54.512131
62.270828
71.082260
80.828003
90.475311
98.205475
101.734024
99.011185
88.855194
71.446259
48.367599
22.407959
-3.145309
-25.388031
-42.340149
-53.252441
-58.459915
-58.957474
-55.930740
-50.516495
-43.788269
-36.646957
-29.907806
-24.105865
-19.423218
-15.738037
-12.723419
-10.181290
-8.122025
-6.632523
-5.748474
-5.220551
-4.453949
-2.720917
0.523651
5.442337
11.792175
19.032440
26.575623
33.964996
40.938477
47.701904
54.623749
62.235565
70.945602
80.584793
90.143723
97.898697
101.689728
99.562958
90.503433
74.789337
54.013870
30.648575
7.369736
-13.643631
-31.110565
-44.608459
-54.350952
-60.727966
-64.188049
-65.221390
-64.293915
-61.948029
-58.683609
-54.719650
-50.019592
-44.496246
-38.334702
-32.087463
-26.696411
-22.983963
-21.336349
-21.392548
-22.306992
-23.164017
-23.228668
-22.021545
-19.330109
-14.922501
-8.642380
-0.597214
8.685349
18.414001
27.700775
36.050110
43.670471
51.392609
60.265823
71.053268
83.592789
96.451050
107.177002
112.884338
111.273987
101.516022
84.623383
63.134308
40.211945
18.558304
-0.184372
-15.438736
-27.447357
-36.676605
-43.629944
-48.742813
-52.531090
-55.502693
-58.085754
-60.383095
-62.227303
-63.263962
-63.258011
-62.130524
-60.097496
-57.515472
-54.704636
-51.981544
-49.516159
-47.382301
-45.522316
-43.690605
-41.492645
-38.416542
-34.070625
-28.147850
-20.650352
-11.867073
-2.335518
7.325890
16.578094
25.025673
32.624962
39.594429
46.442482
53.847672
62.548801
73.106720
85.484879
98.653854
110.469482
118.119934
118.791252
110.890869
94.616699
72.010445
46.291580
20.759251
-2.101486
-21.050209
-35.911827
-47.212242
-55.628044
-61.737221
-66.050163
-68.915436
-70.583008
-71.186806
-70.753792
-69.260338
-66.822952
-63.577610
-59.805725
-55.866676
-52.112251
-48.937397
-46.610973
-45.138393
-44.251362
-43.499840
-42.326706
-40.280083
-37.251953
-33.248863
-28.348763
-22.571251
-15.923911
-8.458397
-0.495590
7.536470
15.126040
21.913477
27.960060
33.718571
39.961266
47.700771
57.701225
70.018318
83.667259
96.619873
106.031143
109.226929
104.413559
91.288895
71.183121
46.651588
20.831215
-3.241756
-23.367764
-38.391354
-48.314987
-54.001476
-56.896519
-58.297188
-59.081535
-59.543823
-59.586578
-58.967670
-57.643837
-55.718143
-53.492565
-51.267933
-49.247753
-47.587608
-46.406853
-45.644089
-45.126049
-44.545704
-43.567074
-42.007072
-39.852131
-36.996811
-33.301502
-28.536411
-22.562153
-15.425148
-7.582703
0.339672
7.819771
14.518482
20.411411
25.579502
30.204586
34.758968
39.905334
46.622795
55.740044
67.587585
81.358429
95.098999
105.978111
110.891403
107.458588
94.690750
73.448456
46.489281
17.674984
-9.003876
-30.580555
-45.836418
-55.195702
-60.222607
-62.570797
-63.386745
-63.033104
-61.431580
-58.681568
-55.123627
-51.427422
-48.302891
-46.116066
-44.869965
-44.232334
-43.855118
-43.482056
-43.031258
-42.480076
-41.744102
-40.644302
-38.821957
-35.979649
-31.999283
-26.971497
-21.257263
-15.275230
-9.290897
-3.314018
2.728840
8.936230
15.263996
21.504513
27.577023
33.606766
40.086319
47.611462
56.662411
67.224289
78.679512
89.609772
98.026016
101.700165
98.595146
87.569595
68.964851
44.703003
17.889282
-7.964201
-30.079943
-46.942833
-58.509941
-65.616577
-69.373192
-70.572433
-69.642090
-66.784218
-62.040154
-55.765392
-48.463188
-40.771461
-33.351185
-26.819193
-21.623520
-18.084520
-16.324673
-16.264963
-17.559586
-19.621325
-21.626575
-22.818817
-22.603058
-20.717155
-17.254337
-12.547979
-6.824759
-0.294979
6.842275
14.281059
21.499268
28.013317
33.510811
38.130013
42.428467
47.093086
52.766438
59.785442
68.113663
77.141685
85.640640
91.780060
93.345360
88.296272
75.752716
56.408012
32.612503
7.608315
-15.405899
-34.228317
-47.972755
-56.932953
-61.960449
-63.967445
-63.703671
-61.694092
-58.226959
-53.710590
-48.607620
-43.504623
-39.040031
-35.675659
-33.504265
-32.194260
-31.130455
-29.733406
-27.806316
-25.637104
-23.627216
-21.952873
-20.340492
-18.060112
-14.412548
-9.025539
-2.114311
5.589516
13.171127
19.839294
25.250172
29.533646
33.365311
37.488152
42.720154
49.492729
57.904549
67.543762
77.590866
86.725739
93.107521
94.700668
89.685661
77.225327
58.086617
34.519470
9.719139
-13.289253
-32.495636
-47.257202
-57.807625
-64.733940
-68.439079
-69.105415
-67.015503
-62.763931
-57.217216
-51.260178
-45.500015
-40.188881
-35.385719
-31.069504
-27.319420
-24.208527
-21.868454
-20.368492
-19.762756
-20.032616
-20.795372
-21.334671
-20.673393
-17.912743
-12.680626
-5.318092
3.193787
11.558281
18.768219
24.308998
28.357620
31.550255
34.994881
39.856590
47.186295
57.509666
70.412132
84.249413
96.368469
103.667969
103.462776
94.452065
77.091362
53.654434
27.493835
2.142296
-19.609695
-36.172142
-47.261421
-53.502808
-55.941399
-55.609802
-53.400803
-49.986847
-45.962860
-41.820114
-37.847450
-34.135094
-30.665848
-27.448898
-24.533752
-22.106949
-20.303955
-19.222046
-18.913223
-19.276047
-20.114120
-20.950272
-20.928848
-19.095383
-14.651840
-7.477844
1.707397
11.555832
20.509079
27.550919
32.380051
35.593628
38.363541
42.078232
48.137680
57.384964
69.588470
83.139511
95.038040
101.662155
99.912674
88.377213
67.979172
41.662064
13.353104
-13.266022
-35.513199
-52.112137
-62.924835
-68.552063
-70.096710
-68.734787
-65.634232
-61.737122
-57.617462
-53.448395
-49.209106
-44.804459
-40.166656
-35.373169
-30.586258
-25.961670
-21.795013
-18.355972
-15.903290
-14.537720
-14.049011
-13.879227
-13.201736
-11.185974
-7.206482
-1.054977
6.991516
16.186081
25.534561
34.061279
41.173386
46.871460
51.852325
57.300339
64.456589
74.060608
85.790161
98.076889
108.193420
112.984589
109.794312
97.357590
76.384659
49.366470
19.870422
-8.401718
-32.579681
-51.017723
-63.353333
-70.091202
-72.280975
-71.255402
-68.260300
-64.547958
-60.976471
-57.960884
-55.507370
-53.243126
-50.749214
-47.693535
-43.953384
-39.613167
-34.916458
-30.283173
-26.184441
-23.009789
-20.932335
-19.626282
-18.432419
-16.389000
-12.682091
-6.945923
0.784874
9.803947
19.121674
27.769463
35.096237
41.070396
46.279350
51.892395
59.087334
68.679092
80.555183
93.465218
105.142586
112.715492
113.403549
105.383133
88.346550
63.778282
34.734200
4.995216
-21.852852
-43.357224
-58.598885
-68.028038
-72.783394
-74.085388
-73.026291
-70.351906
-66.729843
-62.715004
-58.645020
-54.706413
-50.783760
-46.638969
-42.232796
-37.727196
-33.402443
-29.558533
-26.380806
-23.944077
-22.153168
-20.847290
-19.675751
-18.068329
-15.368225
-10.880371
-4.396980
3.763725
12.783768
21.539032
29.134003
35.081482
39.612442
43.612358
48.364037
55.115891
64.551926
76.445770
89.352005
100.878822
108.269882
108.954865
101.379875
85.343826
62.107216
34.295418
5.281906
-21.514599
-43.489307
-59.277538
-68.929749
-73.577469
-74.600868
-73.166687
-70.005142
-65.575119
-60.430649
-55.282963
-50.911095
-47.777828
-45.823036
-44.509323
-43.100452
-41.087879
-38.392899
-35.330540
-32.350857
-29.804344
-27.775768
-25.938156
-23.692677
-20.366402
-15.345486
-8.438644
0.107346
9.443253
18.557705
26.537487
32.999435
38.323376
43.419872
49.553242
57.781609
68.567154
81.381165
94.676285
105.958862
112.417107
111.615845
102.141182
84.167595
59.384918
30.648521
1.224274
-25.851543
-48.370983
-65.266121
-76.529251
-82.906311
-85.452194
-85.130310
-82.610840
-78.279396
-72.517525
-65.840431
-58.988556
-52.701584
-47.490215
-43.471226
-40.450279
-38.111584
-36.185665
-34.452888
-32.719986
-30.809088
-28.489416
-25.643589
-22.133450
-17.887955
-12.796803
-6.647163
0.693470
9.100367
18.087004
26.979937
35.079334
41.970680
47.755978
53.031742
58.700462
65.715965
74.752426
85.822769
98.061226
109.633629
117.981873
120.442230
114.944794
100.625679
78.231880
50.039200
19.374031
-10.195854
-35.683907
-55.325027
-68.660400
-76.403961
-79.859467
-80.321922
-78.769783
-75.777290
-71.686279
-66.815186
-61.588451
-56.488609
-51.878571
-48.012962
-44.932800
-42.677948
-41.193565
-40.341328
-39.882450
-39.440842
-38.644287
-37.138172
-34.613319
-30.794554
-25.530060
-18.811459
-10.800404
-1.993874
7.024008
15.731031
23.857220
31.376766
38.405144
45.101845
51.628521
58.338417
65.760048
74.513855
85.053047
97.022865
109.045357
118.811813
123.565155
120.820107
109.183075
88.850494
61.759094
31.091049
0.594494
-26.476271
-48.042297
-63.424793
-73.176010
-78.352242
-80.123802
-79.299927
-76.500961
-72.366852
-67.616943
-63.053413
-59.227516
-56.374645
-54.268452
-52.486694
-50.730171
-48.912506
-47.229164
-45.818996
-44.585915
-43.135963
-40.907970
-37.412571
-32.546387
-26.695137
-20.481726
-14.507805
-9.009907
-3.737101
1.883677
8.292635
15.615421
23.465807
31.184761
38.174095
44.198093
49.448135
54.562157
60.371552
67.743942
77.212524
88.707062
101.092392
112.168274
118.998528
118.520683
108.666695
89.189438
61.939495
30.452080
-1.101601
-29.062071
-51.028862
-66.220284
-75.191704
-79.155708
-79.558823
-77.695396
-74.461685
-70.388702
-65.830147
-60.936638
-55.867924
-50.769890
-45.760597
-41.004528
-36.659035
-32.833878
-29.703381
-27.375084
-25.902740
-25.193066
-24.968224
-24.756592
-23.960945
-22.096489
-18.729347
-13.708447
-7.152054
0.605820
9.045525
17.538368
25.612637
32.949089
39.491409
45.615692
51.822826
58.850273
67.477890
78.035957
90.033249
101.826096
110.781143
113.821213
108.449905
93.727295
70.668167
42.028385
11.485790
-17.304840
-41.567757
-59.786987
-71.613754
-77.642929
-79.011154
-77.114899
-73.225266
-68.357193
-63.149498
-57.847092
-52.506863
-47.102180
-41.638062
-36.253761
-31.084015
-26.355232
-22.277634
-19.008694
-16.644344
-15.229805
-14.713383
-14.839725
-15.089947
-14.728500
-12.832130
-8.670460
-2.047726
6.484661
15.749180
24.458858
31.698376
37.309887
41.890190
46.466312
52.072903
59.414852
68.839767
80.023842
91.870117
102.363464
108.657715
107.925949
98.121597
79.050858
52.625553
22.336033
-7.700462
-34.131672
-54.930412
-69.619926
-78.754333
-83.216034
-83.786346
-81.038773
-75.459564
-67.728180
-58.842354
-50.031204
-42.356453
-36.471886
-32.336163
-29.388725
-26.874844
-24.214565
-21.350330
-18.685165
-16.775558
-15.996777
-16.273029
-16.955601
-17.072800
-15.572151
-11.718388
-5.308567
3.261791
13.090332
23.043381
32.059269
39.583050
45.599262
50.689796
55.860149
62.206963
70.518265
81.132599
93.356506
105.399170
114.495804
117.502953
111.846176
96.503632
72.581894
43.072681
12.032269
-16.616077
-40.058582
-56.959324
-67.401184
-72.332909
-73.057106
-70.861526
-66.860275
-61.923355
-56.800850
-52.094196
-48.148502
-45.103596
-42.843529
-40.953236
-38.935329
-36.406380
-33.252953
-29.815170
-26.595482
-24.021084
-22.156767
-20.484081
-18.068741
-13.995461
-7.713455
0.713537
10.510481
20.519825
29.580929
36.964294
42.663734
47.315468
52.110748
58.244053
66.590034
77.267059
89.495132
101.466812
110.602692
114.058006
109.493500
95.804642
73.573730
45.175224
14.114861
-15.874075
-41.707695
-61.612938
-75.060921
-82.421196
-84.515984
-82.306206
-76.851158
-69.283470
-60.783897
-52.504368
-45.361526
-39.897125
-36.285271
-34.311256
-33.465759
-33.076950
-32.510689
-31.486292
-30.169260
-29.048365
-28.473017
-28.294666
-27.646381
-25.386196
-20.531902
-12.986795
-3.556259
6.466604
15.829826
23.916122
30.883553
37.354210
44.154819
52.096714
61.737598
73.435974
86.963867
101.269196
114.171097
122.680504
123.681763
114.969925
96.172562
69.050034
37.125580
4.598026
-24.705482
-48.330799
-65.368423
-76.208214
-81.848969
-83.312172
-81.313606
-76.526352
-69.743698
-62.047256
-54.619156
-48.522797
-44.245087
-41.687180
-40.271332
-39.370003
-38.457024
-37.332626
-35.984367
-34.540306
-33.054199
-31.437271
-29.378738
-26.355896
-21.793350
-15.314209
-6.977730
2.593231
12.380791
21.418297
29.119530
35.550766
41.341866
47.451378
54.911194
64.497902
76.471992
90.145744
103.761032
114.518387
119.028938
114.433250
99.401772
74.746254
43.381310
9.479126
-22.689781
-49.810875
-70.140228
-83.449570
-90.571701
-92.797127
-91.429955
-87.359604
-81.182816
-73.426392
-64.758629
-56.064590
-48.283363
-42.060074
-37.543922
-34.334045
-31.824310
-29.594437
-27.619949
-26.213173
-25.728653
-26.115067
-26.823486
-26.783279
-24.916138
-20.428246
-13.154953
-3.722420
6.716576
16.763580
25.250183
31.720551
36.438995
40.498970
45.335579
52.374283
62.525696
75.957016
91.758392
107.725540
120.663864
126.952652
123.494675
108.897736
84.084610
52.284729
18.020508
-14.287354
-41.334305
-61.567474
-74.918304
-82.194138
-84.469604
-82.800934
-78.286850
-72.019394
-65.169891
-58.750931
-53.403839
-49.298553
-46.125504
-43.357895
-40.601471
-37.685242
-34.890778
-32.670959
-31.476181
-31.375763
-31.915161
-32.149170
-30.877274
-27.093094
-20.337448
-10.896637
0.241302
11.738068
22.270035
30.967056
37.723190
43.182144
48.594025
55.494705
65.159073
78.116943
93.605133
109.396454
122.024734
127.581055
122.967957
106.960220
80.845093
48.130997
13.511780
-18.541306
-44.945786
-64.414734
-77.206360
-84.359726
-87.111893
-86.508347
-83.411362
-78.614868
-72.863586
-66.809036
-60.885880
-55.230011
-49.886017
-44.817291
-40.020142
-35.574036
-31.626785
-28.410568
-26.168396
-25.040710
-24.849258
-24.953445
-24.326584
-21.797607
-16.512863
-8.382019
1.922058
13.111465
23.805908
32.963562
40.241043
45.999329
51.170700
56.955856
64.557388
74.829697
87.807846
102.394623
116.186859
125.796295
127.628998
119.125015
99.651733
71.022705
36.987091
2.240524
-29.001785
-54.017502
-71.847702
-83.070526
-88.977386
-90.945480
-90.114380
-87.319107
-83.325302
-78.829239
-74.409241
-70.349533
-66.541046
-62.650940
-58.307556
-53.389572
-48.112930
-42.914642
-38.288376
-34.675842
-32.222107
-30.759781
-29.660751
-27.987228
-24.629257
-18.704880
-10.026474
0.793762
12.519836
23.803726
33.565659
41.406693
47.547394
52.677444
57.785217
63.983856
72.225815
83.063385
96.003021
109.159668
119.436234
123.222244
117.565063
101.234253
75.424149
43.374573
9.472198
-21.964493
-47.823685
-66.539337
-78.117844
-83.604645
-84.415176
-82.007416
-77.658844
-72.402542
-67.097443
-62.404007
-58.597977
-55.556732
-52.762390
-49.497040
-45.290146
-40.190521
-34.818680
-30.207382
-27.291229
-26.388885
-27.007050
-27.887466
-27.347412
-23.962189
-17.007660
-6.757736
5.666183
18.565399
30.451889
40.361847
48.298790
55.136909
62.295853
71.263390
82.908302
97.063362
112.210205
125.583366
133.641052
133.111725
121.979805
100.196373
69.952805
35.009781
-0.248138
-31.998947
-57.751015
-76.583481
-88.788528
-95.413612
-97.790710
-97.135674
-94.498825
-90.648369
-86.192398
-81.469185
-76.561386
-71.383835
-65.665962
-59.227821
-52.035622
-44.453125
-37.139687
-30.867104
-26.240067
-23.333076
-21.577278
-19.850883
-16.836006
-11.454430
-3.305771
7.185562
18.886414
30.397247
40.478271
48.560631
54.956276
60.854019
67.871490
77.299240
89.452080
103.260483
116.161446
124.778679
125.763283
116.948151
97.913971
70.397934
37.802231
4.289139
-26.275928
-51.266930
-69.590881
-81.652077
-88.676315
-92.001755
-92.654945
-91.219757
-88.009956
-83.350021
-77.669006
-71.497604
-65.239197
-59.080906
-53.030647
-47.068466
-41.311764
-36.113838
-31.958450
-29.163332
-27.697317
-26.904310
-25.707348
-22.811363
-17.274605
-8.835907
1.873745
13.646414
24.980106
34.749420
42.549652
48.740974
54.285225
60.373940
68.200119
78.489357
91.194962
105.166145
118.086990
126.825760
128.160492
119.712593
100.911041
73.297150
40.284546
6.251511
-24.659590
-49.542313
-67.255501
-78.273132
-84.063950
-86.236847
-85.991920
-83.948502
-80.342026
-75.322983
-69.220604
-62.524189
-55.658367
-48.878288
-42.160690
-35.558529
-29.324005
-23.969864
-20.117447
-18.221359
-18.196960
-19.399025
-20.716202
-20.922943
-18.999680
-14.405647
-7.137131
2.231056
12.791672
23.437279
33.187424
41.434830
48.172646
54.018387
60.102043
67.698845
77.734520
90.240364
104.056908
116.871933
125.636917
127.433167
120.262657
103.693420
79.038467
48.960442
16.990318
-13.448029
-39.651588
-60.074905
-74.358070
-83.146446
-87.560844
-88.752625
-87.523773
-84.291595
-79.299377
-72.848007
-65.430527
-57.715912
-50.393265
-43.959946
-38.635056
-34.458954
-31.317734
-29.012497
-27.285950
-25.784485
-24.065842
-21.714767
-18.390976
-13.842590
-8.040375
-1.097794
6.652542
14.753815
22.661118
29.851028
36.075439
41.370148
46.058975
50.655441
55.720245
61.807709
69.381271
78.585617
89.013290
99.499176
108.033493
112.055954
109.211807
98.110779
79.000885
53.737198
25.331055
-2.905487
-28.226013
-48.930237
-64.388916
-74.779922
-80.642441
-82.595978
-81.340958
-77.509598
-71.907776
-65.413376
-58.851791
-52.964035
-48.117111
-44.426956
-41.751541
-39.852844
-38.524338
-37.633545
-37.057983
-36.565536
-35.765656
-34.200485
-31.393112
-27.128250
-21.400055
-14.527328
-7.104889
0.149002
6.619003
12.006271
16.438126
20.547241
25.132309
30.833008
37.820572
45.628052
53.406509
60.259308
65.611176
69.603821
72.998535
76.963989
82.722961
90.910980
101.225800
112.220245
121.398987
125.851837
122.951813
111.205658
90.714600
63.231323
31.750183
-0.280365
-29.573944
-53.703033
-71.401703
-82.541321
-87.917664
-88.772491
-86.390015
-81.866608
-76.082855
-69.694458
-63.357513
-57.577484
-52.766357
-49.093933
-46.498474
-44.881592
-44.115112
-44.199982
-45.058044
-46.469727
-48.033173
-49.152191
-49.230347
-47.839142
-44.698059
-39.659271
-32.893646
-24.931274
-16.616180
-8.937744
-2.654510
2.031250
5.483215
8.519623
11.864227
15.948242
20.780518
26.177368
31.990814
38.229065
44.963928
52.156586
59.549164
66.711365
73.202026
78.821411
83.747986
88.578461
94.283569
101.779327
111.473389
122.803619
133.991058
142.253052
144.606445
138.686340
123.447632
99.585693
69.291382
35.655975
2.022797
-28.671936
-54.330505
-73.854736
-87.129364
-94.709198
-97.540619
-96.688293
-93.110748
-87.646393
-81.024261
-73.915771
-66.840210
-60.194092
-54.158264
-48.783661
-44.179474
-40.499115
-38.002686
-36.834564
-36.954224
-37.958679
-39.210388
-39.994690
-39.757568
-38.208069
-35.526550
-32.078705
-28.414062
-24.901398
-21.683868
-18.697937
-15.720856
-12.559235
-9.076630
-5.325470
-1.421967
2.491058
6.306030
10.038208
13.910950
18.356262
23.750854
30.428680
38.311310
46.979156
55.700073
63.793274
70.887482
77.195892
83.378601
90.433807
99.150391
109.695557
121.338806
132.370270
140.209686
142.131531
135.777954
120.124054
95.820541
65.182938
31.566788
-1.504944
-31.133041
-55.438278
-73.612091
-85.602005
-91.882370
-93.255905
-90.733002
-85.465500
-78.664352
-71.197571
-63.748413
-56.677063
-50.294937
-44.952713
-40.985840
-38.604385
-37.811508
-38.287750
-39.619919
-41.337570
-43.040070
-44.433228
-45.236923
-45.121719
-43.858902
-41.339325
-37.619370
-32.904465
-27.499619
-21.683395
-15.659500
-9.507126
-3.190552
3.422668
10.388077
17.679520
25.088745
32.295013
38.928192
44.793213
49.809769
54.157272
58.092407
62.007477
66.561630
72.515472
80.617188
91.282700
104.134445
117.740341
129.714401
137.259262
137.683716
129.303680
111.650742
85.833282
54.331955
20.420456
-12.482162
-41.392471
-64.437820
-80.951874
-91.219254
-96.190285
-96.987450
-94.625076
-89.901222
-83.486526
-76.008186
-68.051300
-60.191833
-52.851166
-46.460182
-41.309235
-37.666100
-35.676971
-35.282776
-36.124710
-37.585743
-38.931473
-39.439709
-38.559368
-36.093815
-32.014965
-26.576221
-19.979061
-12.503078
-4.434738
3.962093
12.436628
20.718756
28.634323
36.098145
43.024441
49.465103
55.726479
62.449627
70.539772
80.815033
93.569733
107.897972
121.605110
131.373550
133.762039
126.178978
107.828728
80.031288
45.953049
9.678307
-24.740023
-54.132515
-76.634880
-91.795547
-100.139313
-102.855759
-101.317627
-96.914368
-90.730156
-83.613785
-76.093781
-68.450424
-60.786804
-53.178612
-45.805595
-39.069397
-33.429749
-29.313728
-26.766914
-25.354782
-24.279465
-22.721153
-20.151016
-16.420059
-11.720764
-6.252197
-0.026886
7.029442
14.872726
23.060249
30.938568
37.852226
43.676804
48.961441
54.761993
62.214447
71.987045
83.966446
97.185989
109.845612
119.632980
124.006622
120.700729
108.368256
87.057220
58.441757
25.551712
-7.972504
-38.662018
-64.101044
-83.109116
-95.790680
-103.018478
-105.979385
-105.741013
-102.918945
-97.917999
-91.067947
-82.985519
-74.554306
-66.763260
-60.358337
-55.452621
-51.743515
-48.621552
-45.644531
-42.670471
-39.851746
-37.275482
-34.775970
-31.865082
-27.890213
-22.312393
-14.913452
-5.887680
4.182846
14.416245
23.863495
31.816116
38.133713
43.436584
48.912811
56.008774
65.828247
78.617157
93.561829
108.728577
121.382965
128.540985
127.572601
116.904938
96.577789
68.382660
35.569641
2.112976
-28.330048
-53.163269
-71.271698
-82.950836
-89.314423
-91.696320
-91.200134
-88.588074
-84.363617
-78.976898
-73.052551
-67.224426
-61.969818
-57.475800
-53.589996
-49.957489
-46.342682
-42.762360
-39.573242
-37.174530
-35.741455
-35.039795
-34.390686
-32.888367
-29.627258
-24.081360
-16.225769
-6.478912
4.341034
15.229919
25.363068
34.263062
42.100800
49.574280
57.901337
68.216980
81.235382
96.690643
113.105255
127.855835
137.542786
138.959167
129.876343
109.934723
80.981415
46.637115
11.373444
-20.731506
-46.916504
-66.111389
-78.745972
-86.077545
-89.594086
-90.538879
-89.706268
-87.561005
-84.221344
-79.681244
-74.119568
-67.896820
-61.638977
-56.034424
-51.593597
-48.479767
-46.474335
-45.226685
-44.373535
-43.640747
-42.681122
-41.001465
-37.989838
-33.150146
-26.399872
-18.087738
-8.972900
0.187653
8.843231
16.766235
23.986053
30.644745
37.003265
43.505920
50.813171
59.873291
71.418640
85.656250
101.796204
117.803040
130.588409
136.762146
133.438293
119.256531
94.990967
63.490356
28.937531
-4.326385
-32.920197
-55.145599
-70.939240
-81.407623
-87.973755
-91.795898
-93.512054
-93.309296
-91.182709
-87.214600
-81.786316
-75.555634
-69.358551
-64.019348
-60.013275
-57.456451
-56.073883
-55.373199
-54.898132
-54.161438
-52.743073
-50.251617
-46.388153
-40.942810
-33.962860
-25.667938
-16.313202
-6.205475
4.450653
15.408844
26.329620
36.746552
46.279266
54.688751
62.187836
69.518311
77.747498
87.962677
100.737427
115.649384
130.908508
143.517761
149.874512
146.761963
132.479767
107.489899
74.388672
37.283600
0.659454
-31.711334
-57.480225
-75.900299
-87.541351
-93.709290
-95.946442
-95.501434
-93.272369
-89.775513
-85.263092
-79.983002
-74.204956
-68.250671
-62.521637
-57.311371
-52.847534
-49.209808
-46.411041
-44.353790
-42.883453
-41.739319
-40.566864
-38.909515
-36.297394
-32.254303
-26.506042
-18.946136
-9.819702
0.421814
11.104218
21.516693
31.019318
39.241211
46.218414
52.517700
59.178864
67.472443
78.499359
92.677582
109.228882
126.035797
139.748352
146.611938
143.464691
128.844879
103.525909
70.498108
34.125580
-1.109497
-31.706055
-55.768646
-73.069183
-84.490875
-91.327881
-94.681030
-95.298370
-93.548492
-89.739594
-84.373718
-78.200439
-72.156677
-66.999054
-63.009460
-60.036011
-57.460022
-54.696259
-51.417542
-47.654877
-43.629181
-39.553070
-35.452515
-31.172760
-26.424530
-20.953491
-14.543610
-7.118256
1.255295
10.309097
19.591690
28.607910
36.928375
44.394623
51.218826
57.967987
65.500549
74.742950
86.405579
100.406754
115.412354
128.734940
136.709366
135.885315
124.091782
101.401825
70.288467
34.843750
-0.389999
-31.592651
-56.423325
-74.142700
-85.189865
-90.598328
-91.590500
-89.225449
-84.456284
-78.132263
-71.040237
-63.906097
-57.233963
-51.230255
-45.872253
-40.937531
-36.247131
-31.804672
-27.870300
-24.782104
-22.751526
-21.701797
-21.204330
-20.551773
-18.921997
-15.566559
-10.048264
-2.383041
6.940964
17.019638
26.784149
35.424866
42.617554
48.772247
54.907166
62.390335
72.368500
85.351562
100.732162
116.605011
129.956924
137.235001
135.311264
122.483856
99.124725
67.868896
32.884933
-1.223022
-30.723541
-53.444717
-68.951035
-78.145554
-82.586395
-83.801239
-82.948578
-80.754364
-77.652786
-73.895126
-69.642517
-65.059998
-60.297943
-55.501129
-50.824974
-46.448257
-42.476791
-39.049263
-36.216896
-33.968285
-32.203056
-30.661369
-28.941345
-26.436813
-22.486687
-16.467651
-8.133888
2.146431
13.515266
24.694008
34.531731
42.499535
48.938751
54.916382
61.890884
71.241333
83.710037
99.034737
115.746292
131.114700
141.593719
143.540466
134.430481
113.920418
84.125046
49.173157
13.894089
-17.610077
-42.917694
-61.447922
-73.916130
-81.561485
-85.570076
-86.811729
-85.863808
-83.144608
-78.984886
-73.783394
-67.981186
-62.160034
-56.847786
-52.398262
-48.888123
-46.144623
-43.938080
-42.218071
-41.086113
-40.578140
-40.375206
-39.789429
-37.814930
-33.586224
-26.689411
-17.291599
-6.019669
6.137501
18.114666
29.009510
38.233906
45.896458
52.724045
59.903404
68.783188
80.245583
94.322632
109.964859
125.097641
136.807602
141.974884
137.955078
123.386658
98.813690
66.824829
31.486042
-2.752777
-32.283657
-55.091007
-70.973976
-80.993729
-86.760956
-89.719955
-90.790817
-90.462357
-88.845688
-85.958145
-81.876091
-76.771622
-70.918846
-64.705627
-58.527336
-52.724155
-47.599522
-43.250999
-39.719330
-36.854759
-34.332771
-31.748438
-28.720234
-25.004822
-20.417213
-14.859673
-8.246229
-0.420092
8.563213
18.403446
28.516037
38.224068
47.029755
54.952950
62.519051
70.660858
80.351578
92.231705
106.303741
121.657150
136.253189
147.080688
150.673920
144.096497
126.146347
97.945610
62.892799
25.703196
-9.033829
-38.053883
-59.893898
-74.748390
-83.720886
-88.178467
-89.319252
-88.098213
-85.145958
-80.901459
-75.770950
-70.052002
-64.075699
-58.215534
-52.810635
-48.046288
-44.001057
-40.528706
-37.490177
-34.799862
-32.461868
-30.453045
-28.648739
-26.758488
-24.278690
-20.633377
-15.311279
-8.064198
0.946323
11.108898
21.442131
30.989113
39.289494
46.548645
53.596840
61.563095
71.390533
83.425995
97.313858
111.916580
125.363777
135.212280
138.680161
133.287506
117.629753
92.119400
59.256378
23.184624
-11.374794
-40.428963
-61.786751
-75.234848
-82.233452
-84.990067
-85.560387
-85.206932
-84.210831
-82.225113
-78.853653
-74.020988
-68.280792
-62.503662
-57.489494
-53.557884
-50.551483
-47.914986
-45.178032
-42.120949
-38.789078
-35.318192
-31.756912
-27.921417
-23.501350
-18.198372
-11.904671
-4.647888
3.351593
11.775200
20.257599
28.458961
36.223320
43.608681
50.781128
58.053970
65.712036
74.165878
83.849983
95.153030
107.976456
121.338409
133.014557
139.782440
138.261200
126.138191
103.095795
71.321342
34.877510
-1.471603
-33.583572
-58.957153
-76.918686
-88.189102
-94.199402
-96.392853
-95.823883
-93.167740
-88.881920
-83.341743
-77.000816
-70.306213
-63.694115
-57.504677
-52.009079
-47.424622
-43.916313
-41.497841
-40.030190
-39.127106
-38.253304
-36.810173
-34.345932
-30.674065
-25.820091
-20.049461
-13.698845
-6.952766
0.123253
7.659019
15.738708
24.379112
33.367485
42.288239
50.684509
58.330902
65.356735
72.323227
80.106476
89.598129
101.291946
114.757034
128.477432
139.786407
145.372620
142.083450
127.987274
103.133041
69.728485
31.727982
-6.238159
-40.023468
-66.856674
-85.633270
-96.707748
-101.376678
-101.302582
-98.145630
-93.322800
-87.913742
-82.584503
-77.484863
-72.511551
-67.379440
-61.951920
-56.328247
-50.837601
-45.867493
-41.760635
-38.746155
-36.945389
-36.251602
-36.215164
-36.090912
-34.951935
-31.989868
-26.973145
-20.282806
-12.822433
-5.505859
1.165848
7.301315
13.530151
20.521011
28.596832
37.497375
46.442154
54.598679
61.442810
67.180099
72.907272
80.216934
90.555634
104.446564
120.801849
136.982468
149.234329
153.803192
147.834702
130.321579
102.366257
66.966248
28.326279
-9.073685
-41.465210
-66.516495
-83.617737
-93.584900
-98.063171
-98.759109
-96.999954
-93.510101
-88.720352
-82.930359
-76.394058
-69.360855
-62.143661
-55.067978
-48.698792
-43.708344
-40.764130
-40.163269
-41.589279
-44.099655
-46.461075
-47.574005
-46.661270
-43.473083
-38.147079
-31.112061
-22.962341
-14.455856
-6.328461
0.907700
7.123962
12.770966
18.620590
25.470627
33.701019
43.069305
52.719299
61.732346
69.412048
75.786636
81.683807
88.372116
97.165512
108.732788
122.576828
136.719559
148.014923
152.798340
147.949585
131.924255
105.395065
71.129684
33.315735
-3.622864
-36.054901
-61.760284
-80.020508
-91.253021
-96.405258
-96.666779
-93.182724
-87.120621
-79.632736
-71.771027
-64.375610
-57.920486
-52.540924
